time_s,ecg_mv
0.0,-0.12325
0.004,-0.15119
0.008,-0.14246
0.012,-0.14563
0.016,-0.14655
0.02,-0.13707
0.024,-0.12652
0.028,-0.14649
0.032,-0.15487
0.036,-0.15715
0.04,-0.1646
0.044,-0.18188
0.048,-0.18054
0.052,-0.15928
0.056,-0.17311
0.06,-0.18694
0.064,-0.18044
0.068,-0.14115
0.072,-0.15269
0.076,-0.19669
0.08,-0.22447
0.084,-0.23402
0.088,-0.24764
0.092,-0.26298
0.096,-0.27626
0.1,-0.27387
0.104,-0.26031
0.108,-0.26071
0.112,-0.28242
0.116,-0.2899
0.12,-0.29133
0.124,-0.28531
0.128,-0.29744
0.132,-0.29628
0.136,-0.27431
0.14,-0.27637
0.144,-0.28657
0.148,-0.2994
0.152,-0.29404
0.156,-0.28516
0.16,-0.29436
0.164,-0.31556
0.168,-0.32477
0.172,-0.36044
0.176,-0.38502
0.18,-0.39959
0.184,-0.46356
0.188,-0.49
0.192,-0.41595
0.196,-0.26957
0.2,-0.07361
0.204,0.22924
0.208,0.59334
0.212,0.81295
0.216,0.7975
0.22,0.45723
0.224,-0.05549
0.228,-0.37517
0.232,-0.43695
0.236,-0.37385
0.24,-0.32305
0.244,-0.33557
0.248,-0.34047
0.252,-0.32576
0.256,-0.3151
0.26,-0.31321
0.264,-0.33799
0.268,-0.3313
0.272,-0.33911
0.276,-0.33411
0.28,-0.33239
0.284,-0.32957
0.288,-0.32636
0.292,-0.33358
0.296,-0.35105
0.3,-0.33992
0.304,-0.31322
0.308,-0.31469
0.312,-0.32455
0.316,-0.33643
0.32,-0.33764
0.324,-0.34183
0.328,-0.35633
0.332,-0.34714
0.336,-0.33134
0.34,-0.32812
0.344,-0.34007
0.348,-0.34244
0.352,-0.32191
0.356,-0.33128
0.36,-0.33102
0.364,-0.33839
0.368,-0.33403
0.372,-0.33775
0.376,-0.35315
0.38,-0.35217
0.384,-0.34066
0.388,-0.32351
0.392,-0.33033
0.396,-0.3389
0.4,-0.33434
0.404,-0.33399
0.408,-0.34164
0.412,-0.3505
0.416,-0.34549
0.42,-0.33776
0.424,-0.33182
0.428,-0.34749
0.432,-0.34877
0.436,-0.33624
0.44,-0.33376
0.444,-0.34636
0.448,-0.35636
0.452,-0.34918
0.456,-0.34046
0.46,-0.34268
0.464,-0.36052
0.468,-0.35945
0.472,-0.36342
0.476,-0.36269
0.48,-0.38152
0.484,-0.36897
0.488,-0.35462
0.492,-0.36295
0.496,-0.37663
0.5,-0.36613
0.504,-0.36328
0.508,-0.35854
0.512,-0.36899
0.516,-0.35901
0.52,-0.32943
0.524,-0.32316
0.528,-0.3375
0.532,-0.32818
0.536,-0.30072
0.54,-0.29625
0.544,-0.29176
0.548,-0.29056
0.552,-0.27703
0.556,-0.25518
0.56,-0.24859
0.564,-0.26291
0.568,-0.24971
0.572,-0.23485
0.576,-0.24264
0.58,-0.25449
0.584,-0.24918
0.588,-0.24603
0.592,-0.25243
0.596,-0.24986
0.6,-0.25106
0.604,-0.25577
0.608,-0.26363
0.612,-0.25924
0.616,-0.2707
0.62,-0.26228
0.624,-0.26787
0.628,-0.28383
0.632,-0.28382
0.636,-0.26641
0.64,-0.26795
0.644,-0.28353
0.648,-0.28019
0.652,-0.275
0.656,-0.26527
0.66,-0.27907
0.664,-0.28935
0.668,-0.27673
0.672,-0.2809
0.676,-0.28767
0.68,-0.30334
0.684,-0.30023
0.688,-0.29793
0.692,-0.30951
0.696,-0.30863
0.7,-0.29387
0.704,-0.28522
0.708,-0.28704
0.712,-0.30292
0.716,-0.29726
0.72,-0.2939
0.724,-0.30355
0.728,-0.31271
0.732,-0.32044
0.736,-0.29673
0.74,-0.29739
0.744,-0.32394
0.748,-0.32664
0.752,-0.30357
0.756,-0.30449
0.76,-0.31617
0.764,-0.32915
0.768,-0.32069
0.772,-0.3092
0.776,-0.30543
0.78,-0.3069
0.784,-0.30377
0.788,-0.29589
0.792,-0.2971
0.796,-0.30387
0.8,-0.30386
0.804,-0.2843
0.808,-0.29014
0.812,-0.31121
0.816,-0.30809
0.82,-0.29404
0.824,-0.28415
0.828,-0.27045
0.832,-0.27676
0.836,-0.26779
0.84,-0.24954
0.844,-0.25199
0.848,-0.22503
0.852,-0.20979
0.856,-0.19911
0.86,-0.21196
0.864,-0.22618
0.868,-0.22222
0.872,-0.2255
0.876,-0.22581
0.88,-0.235
0.884,-0.23853
0.888,-0.22725
0.892,-0.20471
0.896,-0.22546
0.9,-0.28187
0.904,-0.29069
0.908,-0.3108
0.912,-0.33081
0.916,-0.32557
0.92,-0.31728
0.924,-0.31686
0.928,-0.32554
0.932,-0.34462
0.936,-0.34048
0.94,-0.34277
0.944,-0.35123
0.948,-0.34381
0.952,-0.33331
0.956,-0.32629
0.96,-0.3328
0.964,-0.35522
0.968,-0.33348
0.972,-0.32583
0.976,-0.33597
0.98,-0.36369
0.984,-0.36247
0.988,-0.41017
0.992,-0.45085
0.996,-0.49423
1.0,-0.53414
1.004,-0.47308
1.008,-0.30992
1.012,-0.1226
1.016,0.16645
1.02,0.54419
1.024,0.82831
1.028,0.94295
1.032,0.84241
1.036,0.50323
1.04,0.04345
1.044,-0.253
1.048,-0.40906
1.052,-0.47205
1.056,-0.45213
1.06,-0.40319
1.064,-0.38653
1.068,-0.38894
1.072,-0.38317
1.076,-0.37846
1.08,-0.39077
1.084,-0.38643
1.088,-0.38404
1.092,-0.37892
1.096,-0.40452
1.1,-0.40997
1.104,-0.39688
1.108,-0.39241
1.112,-0.40275
1.116,-0.38555
1.12,-0.3795
1.124,-0.39101
1.128,-0.40338
1.132,-0.41201
1.136,-0.39346
1.14,-0.3894
1.144,-0.40592
1.148,-0.40888
1.152,-0.40525
1.156,-0.40706
1.16,-0.41352
1.164,-0.40899
1.168,-0.40015
1.172,-0.39442
1.176,-0.39549
1.18,-0.40884
1.184,-0.39146
1.188,-0.38517
1.192,-0.39055
1.196,-0.40963
1.2,-0.39549
1.204,-0.38335
1.208,-0.38297
1.212,-0.40384
1.216,-0.40279
1.22,-0.39032
1.224,-0.38683
1.228,-0.40329
1.232,-0.41834
1.236,-0.40009
1.24,-0.39848
1.244,-0.41315
1.248,-0.42161
1.252,-0.41247
1.256,-0.41674
1.26,-0.42366
1.264,-0.43042
1.268,-0.43189
1.272,-0.42132
1.276,-0.43643
1.28,-0.45747
1.284,-0.44346
1.288,-0.44088
1.292,-0.45022
1.296,-0.46354
1.3,-0.46297
1.304,-0.45119
1.308,-0.45417
1.312,-0.47381
1.316,-0.46449
1.32,-0.44895
1.324,-0.44079
1.328,-0.43847
1.332,-0.42657
1.336,-0.39169
1.34,-0.36759
1.344,-0.36249
1.348,-0.3578
1.352,-0.32769
1.356,-0.31538
1.36,-0.32647
1.364,-0.3293
1.368,-0.31569
1.372,-0.29958
1.376,-0.30729
1.38,-0.32272
1.384,-0.31122
1.388,-0.3038
1.392,-0.30015
1.396,-0.3278
1.4,-0.31048
1.404,-0.30495
1.408,-0.29944
1.412,-0.3244
1.416,-0.31348
1.42,-0.30766
1.424,-0.31066
1.428,-0.31164
1.432,-0.31558
1.436,-0.29423
1.44,-0.29579
1.444,-0.31077
1.448,-0.31913
1.452,-0.30527
1.456,-0.31225
1.46,-0.31677
1.464,-0.32395
1.468,-0.31807
1.472,-0.31649
1.476,-0.3286
1.48,-0.33908
1.484,-0.33586
1.488,-0.33107
1.492,-0.32864
1.496,-0.34993
1.5,-0.3444
1.504,-0.33224
1.508,-0.3304
1.512,-0.34613
1.516,-0.34282
1.52,-0.32475
1.524,-0.33145
1.528,-0.34491
1.532,-0.34587
1.536,-0.32849
1.54,-0.33157
1.544,-0.35002
1.548,-0.36082
1.552,-0.34953
1.556,-0.3427
1.56,-0.34427
1.564,-0.34654
1.568,-0.33787
1.572,-0.32821
1.576,-0.33927
1.58,-0.34953
1.584,-0.348
1.588,-0.33299
1.592,-0.34225
1.596,-0.35105
1.6,-0.3513
1.604,-0.33385
1.608,-0.33686
1.612,-0.34163
1.616,-0.33322
1.62,-0.33263
1.624,-0.33233
1.628,-0.34517
1.632,-0.3425
1.636,-0.33162
1.64,-0.30518
1.644,-0.29716
1.648,-0.29367
1.652,-0.27694
1.656,-0.26503
1.66,-0.2657
1.664,-0.25514
1.668,-0.24699
1.672,-0.22376
1.676,-0.22396
1.68,-0.24586
1.684,-0.24091
1.688,-0.24086
1.692,-0.24077
1.696,-0.26532
1.7,-0.27599
1.704,-0.25856
1.708,-0.22983
1.712,-0.21916
1.716,-0.25544
1.72,-0.27418
1.724,-0.28272
1.728,-0.30445
1.732,-0.3315
1.736,-0.33487
1.74,-0.33199
1.744,-0.3516
1.748,-0.36916
1.752,-0.34853
1.756,-0.34974
1.76,-0.36078
1.764,-0.37561
1.768,-0.37676
1.772,-0.36302
1.776,-0.37139
1.78,-0.38389
1.784,-0.38084
1.788,-0.36145
1.792,-0.37025
1.796,-0.40106
1.8,-0.4113
1.804,-0.44898
1.808,-0.48736
1.812,-0.53139
1.816,-0.57045
1.82,-0.50659
1.824,-0.30616
1.828,-0.07619
1.832,0.26482
1.836,0.6819
1.84,0.93167
1.844,0.8861
1.848,0.39113
1.852,-0.23584
1.856,-0.50846
1.86,-0.4708
1.864,-0.4107
1.868,-0.39287
1.872,-0.39234
1.876,-0.39271
1.88,-0.40118
1.884,-0.40048
1.888,-0.3974
1.892,-0.39107
1.896,-0.40469
1.9,-0.40582
1.904,-0.39909
1.908,-0.40954
1.912,-0.41165
1.916,-0.41773
1.92,-0.40385
1.924,-0.41265
1.928,-0.42613
1.932,-0.42737
1.936,-0.41171
1.94,-0.40591
1.944,-0.42047
1.948,-0.42842
1.952,-0.4155
1.956,-0.4092
1.96,-0.41852
1.964,-0.42038
1.968,-0.39377
1.972,-0.40159
1.976,-0.39517
1.98,-0.41027
1.984,-0.40142
1.988,-0.39357
1.992,-0.40432
1.996,-0.42081
2.0,-0.42474
2.004,-0.41391
2.008,-0.41297
2.012,-0.42466
2.016,-0.42228
2.02,-0.41143
2.024,-0.39706
2.028,-0.41396
2.032,-0.41868
2.036,-0.40293
2.04,-0.39603
2.044,-0.40326
2.048,-0.3963
2.052,-0.39328
2.056,-0.39192
2.06,-0.39424
2.064,-0.4133
2.068,-0.40367
2.072,-0.4097
2.076,-0.41686
2.08,-0.42109
2.084,-0.42241
2.088,-0.41246
2.092,-0.41684
2.096,-0.43434
2.1,-0.43078
2.104,-0.4202
2.108,-0.41988
2.112,-0.42118
2.116,-0.42689
2.12,-0.40944
2.124,-0.39361
2.128,-0.38964
2.132,-0.36641
2.136,-0.34316
2.14,-0.33099
2.144,-0.33459
2.148,-0.332
2.152,-0.32102
2.156,-0.30471
2.16,-0.31081
2.164,-0.311
2.168,-0.30223
2.172,-0.29858
2.176,-0.3046
2.18,-0.30984
2.184,-0.3127
2.188,-0.30598
2.192,-0.30427
2.196,-0.31994
2.2,-0.32181
2.204,-0.30777
2.208,-0.30476
2.212,-0.32335
2.216,-0.31306
2.22,-0.30293
2.224,-0.30234
2.228,-0.32732
2.232,-0.32446
2.236,-0.31963
2.24,-0.32026
2.244,-0.34444
2.248,-0.34904
2.252,-0.33441
2.256,-0.33196
2.26,-0.33732
2.264,-0.35685
2.268,-0.34886
2.272,-0.35557
2.276,-0.3574
2.28,-0.36139
2.284,-0.35514
2.288,-0.34399
2.292,-0.34989
2.296,-0.35962
2.3,-0.36312
2.304,-0.35176
2.308,-0.35233
2.312,-0.37438
2.316,-0.37329
2.32,-0.36142
2.324,-0.362
2.328,-0.36689
2.332,-0.37764
2.336,-0.36191
2.34,-0.35015
2.344,-0.35086
2.348,-0.36965
2.352,-0.35231
2.356,-0.34056
2.36,-0.34899
2.364,-0.36405
2.368,-0.35801
2.372,-0.35295
2.376,-0.36257
2.38,-0.38272
2.384,-0.35692
2.388,-0.35862
2.392,-0.35656
2.396,-0.36808
2.4,-0.35844
2.404,-0.34902
2.408,-0.34895
2.412,-0.34385
2.416,-0.34202
2.42,-0.30907
2.424,-0.30454
2.428,-0.30951
2.432,-0.29813
2.436,-0.28239
2.44,-0.27748
2.444,-0.28003
2.448,-0.2732
2.452,-0.25601
2.456,-0.24923
2.46,-0.26272
2.464,-0.27608
2.468,-0.27334
2.472,-0.26678
2.476,-0.27869
2.48,-0.27653
2.484,-0.27861
2.488,-0.26933
2.492,-0.25109
2.496,-0.24683
2.5,-0.2852
2.504,-0.30856
2.508,-0.33653
2.512,-0.36903
2.516,-0.38498
2.52,-0.37724
2.524,-0.37182
2.528,-0.38522
2.532,-0.39327
2.536,-0.38741
2.54,-0.38388
2.544,-0.39244
2.548,-0.40666
2.552,-0.38178
2.556,-0.37644
2.56,-0.39483
2.564,-0.41013
2.568,-0.40382
2.572,-0.39183
2.576,-0.41079
2.58,-0.45117
2.584,-0.48495
2.588,-0.51194
2.592,-0.52214
2.596,-0.57222
2.6,-0.64418
2.604,-0.61023
2.608,-0.50443
2.612,-0.35073
2.616,-0.15781
2.62,0.14392
2.624,0.54802
2.628,0.81831
2.632,0.83588
2.636,0.49398
2.64,-0.09982
2.644,-0.47952
2.648,-0.51338
2.652,-0.42679
2.656,-0.3875
2.66,-0.39605
2.664,-0.41047
2.668,-0.39569
2.672,-0.38688
2.676,-0.4005
2.68,-0.40857
2.684,-0.40516
2.688,-0.39256
2.692,-0.39612
2.696,-0.41563
2.7,-0.4074
2.704,-0.39839
2.708,-0.41019
2.712,-0.40394
2.716,-0.40873
2.72,-0.38942
2.724,-0.38679
2.728,-0.39645
2.732,-0.39988
2.736,-0.40001
2.74,-0.39361
2.744,-0.40322
2.748,-0.40378
2.752,-0.39699
2.756,-0.38204
2.76,-0.37962
2.764,-0.39448
2.768,-0.38764
2.772,-0.37711
2.776,-0.38839
2.78,-0.39643
2.784,-0.38189
2.788,-0.37368
2.792,-0.38669
2.796,-0.39422
2.8,-0.38526
2.804,-0.36693
2.808,-0.38673
2.812,-0.38888
2.816,-0.38187
2.82,-0.37677
2.824,-0.38605
2.828,-0.38159
2.832,-0.37321
2.836,-0.37636
2.84,-0.37462
2.844,-0.39065
2.848,-0.38155
2.852,-0.36525
2.856,-0.37837
2.86,-0.38804
2.864,-0.38921
2.868,-0.36849
2.872,-0.37851
2.876,-0.38635
2.88,-0.38025
2.884,-0.37091
2.888,-0.3665
2.892,-0.38776
2.896,-0.39045
2.9,-0.38253
2.904,-0.36649
2.908,-0.37037
2.912,-0.36795
2.916,-0.33656
2.92,-0.31941
2.924,-0.31653
2.928,-0.32556
2.932,-0.30369
2.936,-0.28704
2.94,-0.29964
2.944,-0.28627
2.948,-0.28442
2.952,-0.27244
2.956,-0.2807
2.96,-0.29422
2.964,-0.29459
2.968,-0.2855
2.972,-0.28501
2.976,-0.30399
2.98,-0.29928
2.984,-0.28354
2.988,-0.27576
2.992,-0.29584
2.996,-0.30332
3.0,-0.29599
3.004,-0.28973
3.008,-0.29563
3.012,-0.30565
3.016,-0.29479
3.02,-0.30127
3.024,-0.31
3.028,-0.31461
3.032,-0.30439
3.036,-0.29702
3.04,-0.3189
3.044,-0.33913
3.048,-0.3267
3.052,-0.31915
3.056,-0.31648
3.06,-0.3327
3.064,-0.32795
3.068,-0.31645
3.072,-0.32079
3.076,-0.33569
3.08,-0.34364
3.084,-0.33189
3.088,-0.33311
3.092,-0.34553
3.096,-0.34876
3.1,-0.33853
3.104,-0.33606
3.108,-0.33015
3.112,-0.33817
3.116,-0.33485
3.12,-0.32611
3.124,-0.34098
3.128,-0.35101
3.132,-0.36526
3.136,-0.34603
3.14,-0.3464
3.144,-0.35198
3.148,-0.34534
3.152,-0.34103
3.156,-0.34127
3.16,-0.36508
3.164,-0.36762
3.168,-0.35047
3.172,-0.34447
3.176,-0.353
3.18,-0.34785
3.184,-0.32906
3.188,-0.33318
3.192,-0.33676
3.196,-0.33628
3.2,-0.31656
3.204,-0.28723
3.208,-0.30006
3.212,-0.29903
3.216,-0.27825
3.22,-0.27817
3.224,-0.27642
3.228,-0.27082
3.232,-0.25693
3.236,-0.23498
3.24,-0.24195
3.244,-0.25031
3.248,-0.2549
3.252,-0.23535
3.256,-0.25739
3.26,-0.2622
3.264,-0.25794
3.268,-0.26844
3.272,-0.27334
3.276,-0.25443
3.28,-0.24584
3.284,-0.26733
3.288,-0.29384
3.292,-0.31611
3.296,-0.33117
3.3,-0.34211
3.304,-0.33036
3.308,-0.34532
3.312,-0.35768
3.316,-0.34159
3.32,-0.33652
3.324,-0.35441
3.328,-0.36752
3.332,-0.37379
3.336,-0.36383
3.34,-0.3713
3.344,-0.37896
3.348,-0.36999
3.352,-0.36761
3.356,-0.36252
3.36,-0.37631
3.364,-0.36823
3.368,-0.35348
3.372,-0.35467
3.376,-0.37576
3.38,-0.39526
3.384,-0.43167
3.388,-0.46916
3.392,-0.52593
3.396,-0.56744
3.4,-0.4762
3.404,-0.29591
3.408,-0.07904
3.412,0.27882
3.416,0.65939
3.42,0.82817
3.424,0.64569
3.428,0.11745
3.432,-0.33414
3.436,-0.49661
3.44,-0.46886
3.444,-0.41843
3.448,-0.39434
3.452,-0.39116
3.456,-0.39834
3.46,-0.41833
3.464,-0.42447
3.468,-0.39855
3.472,-0.40141
3.476,-0.41068
3.48,-0.4075
3.484,-0.38544
3.488,-0.39404
3.492,-0.3951
3.496,-0.39482
3.5,-0.38809
3.504,-0.38804
3.508,-0.40076
3.512,-0.4214
3.516,-0.40064
3.52,-0.39645
3.524,-0.40311
3.528,-0.42199
3.532,-0.41023
3.536,-0.403
3.54,-0.40842
3.544,-0.41144
3.548,-0.41162
3.552,-0.41215
3.556,-0.40632
3.56,-0.41745
3.564,-0.41475
3.568,-0.40011
3.572,-0.39296
3.576,-0.39872
3.58,-0.39511
3.584,-0.3988
3.588,-0.40412
3.592,-0.42358
3.596,-0.42633
3.6,-0.40311
3.604,-0.39194
3.608,-0.40711
3.612,-0.4077
3.616,-0.40037
3.62,-0.39496
3.624,-0.39996
3.628,-0.4201
3.632,-0.40692
3.636,-0.39509
3.64,-0.40154
3.644,-0.41927
3.648,-0.42785
3.652,-0.41924
3.656,-0.43098
3.66,-0.45043
3.664,-0.44426
3.668,-0.43955
3.672,-0.46303
3.676,-0.45935
3.68,-0.44643
3.684,-0.43033
3.688,-0.42741
3.692,-0.44577
3.696,-0.44824
3.7,-0.43158
3.704,-0.41361
3.708,-0.42083
3.712,-0.418
3.716,-0.38579
3.72,-0.36776
3.724,-0.36549
3.728,-0.36214
3.732,-0.33689
3.736,-0.31582
3.74,-0.30327
3.744,-0.31571
3.748,-0.3113
3.752,-0.3065
3.756,-0.30965
3.76,-0.31941
3.764,-0.31373
3.768,-0.30475
3.772,-0.29813
3.776,-0.31344
3.78,-0.31603
3.784,-0.30714
3.788,-0.29634
3.792,-0.30632
3.796,-0.29049
3.8,-0.28161
3.804,-0.29109
3.808,-0.3059
3.812,-0.31941
3.816,-0.29799
3.82,-0.30448
3.824,-0.32128
3.828,-0.33431
3.832,-0.31805
3.836,-0.32082
3.84,-0.33392
3.844,-0.33459
3.848,-0.32782
3.852,-0.31942
3.856,-0.32034
3.86,-0.33677
3.864,-0.34142
3.868,-0.33181
3.872,-0.32374
3.876,-0.32425
3.88,-0.3329
3.884,-0.32919
3.888,-0.32999
3.892,-0.33604
3.896,-0.33601
3.9,-0.31919
3.904,-0.31781
3.908,-0.33645
3.912,-0.35157
3.916,-0.34136
3.92,-0.33103
3.924,-0.32105
3.928,-0.34663
3.932,-0.32024
3.936,-0.31628
3.94,-0.33036
3.944,-0.33353
3.948,-0.33424
3.952,-0.32859
3.956,-0.33263
3.96,-0.34142
3.964,-0.33709
3.968,-0.32428
3.972,-0.32636
3.976,-0.34847
3.98,-0.34264
3.984,-0.32803
3.988,-0.31189
3.992,-0.30745
3.996,-0.28986
4.0,-0.26507
4.004,-0.25718
4.008,-0.26453
4.012,-0.25675
4.016,-0.24086
4.02,-0.22763
4.024,-0.22945
4.028,-0.23277
4.032,-0.22318
4.036,-0.22883
4.04,-0.2371
4.044,-0.25412
4.048,-0.23651
4.052,-0.22929
4.056,-0.24992
4.06,-0.25438
4.064,-0.2282
4.068,-0.19834
4.072,-0.20533
4.076,-0.24644
4.08,-0.27514
4.084,-0.28087
4.088,-0.30096
4.092,-0.33256
4.096,-0.34
4.1,-0.34497
4.104,-0.35041
4.108,-0.3444
4.112,-0.35085
4.116,-0.34156
4.12,-0.33917
4.124,-0.35352
4.128,-0.36355
4.132,-0.36368
4.136,-0.3501
4.14,-0.34337
4.144,-0.37929
4.148,-0.3533
4.152,-0.34853
4.156,-0.3492
4.16,-0.37005
4.164,-0.39035
4.168,-0.40746
4.172,-0.45332
4.176,-0.48615
4.18,-0.53933
4.184,-0.53425
4.188,-0.43731
4.192,-0.28041
4.196,-0.05832
4.2,0.31536
4.204,0.6985
4.208,0.88286
4.212,0.7273
4.216,0.22694
4.22,-0.27015
4.224,-0.48432
4.228,-0.48982
4.232,-0.42094
4.236,-0.38931
4.24,-0.3956
4.244,-0.39883
4.248,-0.38745
4.252,-0.38203
4.256,-0.38871
4.26,-0.40743
4.264,-0.40737
4.268,-0.38802
4.272,-0.40154
4.276,-0.4099
4.28,-0.41187
4.284,-0.39407
4.288,-0.39861
4.292,-0.4137
4.296,-0.41592
4.3,-0.40157
4.304,-0.38698
4.308,-0.40702
4.312,-0.41312
4.316,-0.39689
4.32,-0.39413
4.324,-0.40055
4.328,-0.41127
4.332,-0.40511
4.336,-0.39091
4.34,-0.39976
4.344,-0.42324
4.348,-0.41161
4.352,-0.40692
4.356,-0.40778
4.36,-0.42105
4.364,-0.42486
4.368,-0.40149
4.372,-0.39078
4.376,-0.4033
4.38,-0.41232
4.384,-0.39464
4.388,-0.40194
4.392,-0.4213
4.396,-0.4175
4.4,-0.41218
4.404,-0.41088
4.408,-0.41999
4.412,-0.41902
4.416,-0.40266
4.42,-0.40297
4.424,-0.39971
4.428,-0.40794
4.432,-0.39625
4.436,-0.39645
4.44,-0.40565
4.444,-0.42281
4.448,-0.42088
4.452,-0.40803
4.456,-0.42144
4.46,-0.43893
4.464,-0.4422
4.468,-0.43055
4.472,-0.43267
4.476,-0.44858
4.48,-0.44374
4.484,-0.43568
4.488,-0.43927
4.492,-0.44616
4.496,-0.43915
4.5,-0.42721
4.504,-0.40866
4.508,-0.39753
4.512,-0.38115
4.516,-0.34222
4.52,-0.32698
4.524,-0.32826
4.528,-0.32819
4.532,-0.30046
4.536,-0.28752
4.54,-0.28804
4.544,-0.30486
4.548,-0.29317
4.552,-0.28118
4.556,-0.29589
4.56,-0.29246
4.564,-0.29043
4.568,-0.27603
4.572,-0.2763
4.576,-0.291
4.58,-0.2853
4.584,-0.27059
4.588,-0.26907
4.592,-0.27796
4.596,-0.28953
4.6,-0.2743
4.604,-0.28099
4.608,-0.29695
4.612,-0.30132
4.616,-0.29342
4.62,-0.28705
4.624,-0.29468
4.628,-0.3085
4.632,-0.30151
4.636,-0.2986
4.64,-0.30656
4.644,-0.32205
4.648,-0.3228
4.652,-0.31103
4.656,-0.31329
4.66,-0.32189
4.664,-0.31882
4.668,-0.31371
4.672,-0.3188
4.676,-0.33027
4.68,-0.32261
4.684,-0.30961
4.688,-0.30984
4.692,-0.32963
4.696,-0.33344
4.7,-0.32153
4.704,-0.32472
4.708,-0.32936
4.712,-0.33406
4.716,-0.32597
4.72,-0.32371
4.724,-0.32152
4.728,-0.33133
4.732,-0.31759
4.736,-0.31115
4.74,-0.31842
4.744,-0.3305
4.748,-0.32445
4.752,-0.31357
4.756,-0.3317
4.76,-0.33116
4.764,-0.33313
4.768,-0.32406
4.772,-0.32019
4.776,-0.33116
4.78,-0.3255
4.784,-0.31537
4.788,-0.31465
4.792,-0.32941
4.796,-0.32578
4.8,-0.31285
4.804,-0.30527
4.808,-0.29914
4.812,-0.31157
4.816,-0.28078
4.82,-0.25434
4.824,-0.25785
4.828,-0.26483
4.832,-0.24414
4.836,-0.22913
4.84,-0.22284
4.844,-0.22
4.848,-0.21055
4.852,-0.20022
4.856,-0.21077
4.86,-0.23097
4.864,-0.24024
4.868,-0.22097
4.872,-0.23231
4.876,-0.24695
4.88,-0.2394
4.884,-0.20515
4.888,-0.21088
4.892,-0.25784
4.896,-0.2813
4.9,-0.29801
4.904,-0.31141
4.908,-0.32952
4.912,-0.32228
4.916,-0.32639
4.92,-0.3318
4.924,-0.33825
4.928,-0.34409
4.932,-0.338
4.936,-0.3223
4.94,-0.3281
4.944,-0.34346
4.948,-0.34574
4.952,-0.33884
4.956,-0.33848
4.96,-0.35237
4.964,-0.34221
4.968,-0.33948
4.972,-0.3403
4.976,-0.34856
4.98,-0.36279
4.984,-0.37764
4.988,-0.43359
4.992,-0.48124
4.996,-0.50824
5.0,-0.53558
5.004,-0.47161
5.008,-0.29998
5.012,-0.07463
5.016,0.2416
5.02,0.63021
5.024,0.91137
5.028,0.91985
5.032,0.62352
5.036,0.03961
5.04,-0.37556
5.044,-0.47039
5.048,-0.41174
5.052,-0.36254
5.056,-0.36159
5.06,-0.37707
5.064,-0.38028
5.068,-0.37332
5.072,-0.36514
5.076,-0.37628
5.08,-0.38598
5.084,-0.37386
5.088,-0.3683
5.092,-0.38753
5.096,-0.38994
5.1,-0.3852
5.104,-0.38767
5.108,-0.39302
5.112,-0.40907
5.116,-0.39292
5.12,-0.3857
5.124,-0.39555
5.128,-0.39948
5.132,-0.3982
5.136,-0.38989
5.14,-0.39169
5.144,-0.40207
5.148,-0.38965
5.152,-0.37819
5.156,-0.37397
5.16,-0.38766
5.164,-0.38327
5.168,-0.3692
5.172,-0.36986
5.176,-0.37942
5.18,-0.3772
5.184,-0.38382
5.188,-0.37088
5.192,-0.38081
5.196,-0.39167
5.2,-0.38414
5.204,-0.37357
5.208,-0.38393
5.212,-0.39435
5.216,-0.38536
5.22,-0.37618
5.224,-0.3837
5.228,-0.38798
5.232,-0.37914
5.236,-0.37347
5.24,-0.36538
5.244,-0.38204
5.248,-0.36691
5.252,-0.36204
5.256,-0.37249
5.26,-0.39344
5.264,-0.39012
5.268,-0.37331
5.272,-0.37271
5.276,-0.3872
5.28,-0.38948
5.284,-0.39216
5.288,-0.37899
5.292,-0.38691
5.296,-0.38806
5.3,-0.37117
5.304,-0.37349
5.308,-0.38953
5.312,-0.39644
5.316,-0.36657
5.32,-0.36527
5.324,-0.38144
5.328,-0.38062
5.332,-0.36368
5.336,-0.34872
5.34,-0.33816
5.344,-0.32792
5.348,-0.31485
5.352,-0.30025
5.356,-0.28262
5.36,-0.29274
5.364,-0.27966
5.368,-0.27365
5.372,-0.28103
5.376,-0.28268
5.38,-0.29187
5.384,-0.27731
5.388,-0.27804
5.392,-0.28573
5.396,-0.29097
5.4,-0.28107
5.404,-0.28137
5.408,-0.29033
5.412,-0.29938
5.416,-0.28704
5.42,-0.28104
5.424,-0.28579
5.428,-0.29216
5.432,-0.28225
5.436,-0.2761
5.44,-0.28225
5.444,-0.30683
5.448,-0.3005
5.452,-0.27307
5.456,-0.26956
5.46,-0.2821
5.464,-0.28309
5.468,-0.26733
5.472,-0.26318
5.476,-0.27193
5.48,-0.27098
5.484,-0.24021
5.488,-0.23536
5.492,-0.24797
5.496,-0.24978
5.5,-0.21769
5.504,-0.22916
5.508,-0.25619
5.512,-0.2193
5.516,-0.20656
5.52,-0.22246
5.524,-0.23622
5.528,-0.24162
5.532,-0.24666
5.536,-0.26685
5.54,-0.29746
5.544,-0.32336
5.548,-0.31357
5.552,-0.32313
5.556,-0.34126
5.56,-0.35287
5.564,-0.3664
5.568,-0.35399
5.572,-0.35413
5.576,-0.38105
5.58,-0.37796
5.584,-0.36865
5.588,-0.36324
5.592,-0.37396
5.596,-0.37015
5.6,-0.34989
5.604,-0.35568
5.608,-0.35256
5.612,-0.36042
5.616,-0.34649
5.62,-0.346
5.624,-0.35311
5.628,-0.36917
5.632,-0.36981
5.636,-0.39752
5.64,-0.44859
5.644,-0.51128
5.648,-0.52929
5.652,-0.56715
5.656,-0.5297
5.66,-0.36358
5.664,-0.13707
5.668,0.13008
5.672,0.49627
5.676,0.7839
5.68,0.87855
5.684,0.67276
5.688,0.10967
5.692,-0.36544
5.696,-0.48541
5.7,-0.41586
5.704,-0.36512
5.708,-0.38407
5.712,-0.39343
5.716,-0.38385
5.72,-0.38009
5.724,-0.3911
5.728,-0.40363
5.732,-0.38347
5.736,-0.383
5.74,-0.38906
5.744,-0.40004
5.748,-0.40404
5.752,-0.39316
5.756,-0.38949
5.76,-0.39964
5.764,-0.38985
5.768,-0.38686
5.772,-0.38841
5.776,-0.41423
5.78,-0.41224
5.784,-0.40207
5.788,-0.38861
5.792,-0.39226
5.796,-0.40136
5.8,-0.38956
5.804,-0.37415
5.808,-0.39459
5.812,-0.39566
5.816,-0.3957
5.82,-0.39179
5.824,-0.40354
5.828,-0.4156
5.832,-0.39465
5.836,-0.3807
5.84,-0.38937
5.844,-0.40113
5.848,-0.39417
5.852,-0.38195
5.856,-0.37929
5.86,-0.39741
5.864,-0.38501
5.868,-0.37707
5.872,-0.38212
5.876,-0.39465
5.88,-0.40081
5.884,-0.38243
5.888,-0.38834
5.892,-0.3945
5.896,-0.39779
5.9,-0.38538
5.904,-0.38066
5.908,-0.39451
5.912,-0.40427
5.916,-0.39249
5.92,-0.37926
5.924,-0.38347
5.928,-0.40093
5.932,-0.39708
5.936,-0.39439
5.94,-0.39932
5.944,-0.42181
5.948,-0.41608
5.952,-0.4005
5.956,-0.40381
5.96,-0.4112
5.964,-0.40221
5.968,-0.38367
5.972,-0.38317
5.976,-0.40112
5.98,-0.39406
5.984,-0.36912
5.988,-0.37075
5.992,-0.38158
5.996,-0.36131
6.0,-0.34568
6.004,-0.33621
6.008,-0.34104
6.012,-0.34921
6.016,-0.32555
6.02,-0.30961
6.024,-0.30419
6.028,-0.3177
6.032,-0.31351
6.036,-0.30338
6.04,-0.31474
6.044,-0.33202
6.048,-0.33664
6.052,-0.31854
6.056,-0.31103
6.06,-0.30794
6.064,-0.30874
6.068,-0.30094
6.072,-0.3073
6.076,-0.31546
6.08,-0.3253
6.084,-0.31103
6.088,-0.31045
6.092,-0.32515
6.096,-0.32708
6.1,-0.31965
6.104,-0.30955
6.108,-0.32678
6.112,-0.33967
6.116,-0.33092
6.12,-0.34557
6.124,-0.3634
6.128,-0.36506
6.132,-0.34146
6.136,-0.33908
6.14,-0.35183
6.144,-0.36377
6.148,-0.36202
6.152,-0.34894
6.156,-0.35696
6.16,-0.3583
6.164,-0.3549
6.168,-0.34711
6.172,-0.34064
6.176,-0.36459
6.18,-0.35592
6.184,-0.34891
6.188,-0.34744
6.192,-0.34945
6.196,-0.35835
6.2,-0.34999
6.204,-0.35112
6.208,-0.35909
6.212,-0.36609
6.216,-0.35179
6.22,-0.35344
6.224,-0.35583
6.228,-0.38963
6.232,-0.37168
6.236,-0.35905
6.24,-0.37057
6.244,-0.38261
6.248,-0.3772
6.252,-0.35563
6.256,-0.33905
6.26,-0.35492
6.264,-0.35917
6.268,-0.34933
6.272,-0.34077
6.276,-0.36125
6.28,-0.36579
6.284,-0.35933
6.288,-0.36305
6.292,-0.37617
6.296,-0.38694
6.3,-0.36783
6.304,-0.37195
6.308,-0.37274
6.312,-0.37171
6.316,-0.35721
6.32,-0.3554
6.324,-0.36367
6.328,-0.36873
6.332,-0.35422
6.336,-0.34246
6.34,-0.34211
6.344,-0.34653
6.348,-0.34683
6.352,-0.35621
6.356,-0.35314
6.36,-0.36586
6.364,-0.36306
6.368,-0.35615
6.372,-0.36003
6.376,-0.37659
6.38,-0.36965
6.384,-0.35196
6.388,-0.35762
6.392,-0.36768
6.396,-0.37308
6.4,-0.36498
6.404,-0.35705
6.408,-0.35894
6.412,-0.35757
6.416,-0.34244
6.42,-0.3434
6.424,-0.35142
6.428,-0.35967
6.432,-0.36279
6.436,-0.3511
6.44,-0.35157
6.444,-0.35628
6.448,-0.3585
6.452,-0.35095
6.456,-0.33233
6.46,-0.33127
6.464,-0.31144
6.468,-0.30262
6.472,-0.30097
6.476,-0.30085
6.48,-0.29158
6.484,-0.27104
6.488,-0.25874
6.492,-0.2543
6.496,-0.26394
6.5,-0.25682
6.504,-0.255
6.508,-0.27731
6.512,-0.28859
6.516,-0.27052
6.52,-0.25924
6.524,-0.28648
6.528,-0.31315
6.532,-0.29841
6.536,-0.27347
6.54,-0.26463
6.544,-0.28249
6.548,-0.30356
6.552,-0.31313
6.556,-0.32507
6.56,-0.36436
6.564,-0.3664
6.568,-0.36449
6.572,-0.3688
6.576,-0.37074
6.58,-0.37406
6.584,-0.36745
6.588,-0.37357
6.592,-0.40374
6.596,-0.41427
6.6,-0.39728
6.604,-0.38105
6.608,-0.39632
6.612,-0.41399
6.616,-0.39651
6.62,-0.39424
6.624,-0.40341
6.628,-0.43096
6.632,-0.44744
6.636,-0.48346
6.64,-0.49719
6.644,-0.56136
6.648,-0.5694
6.652,-0.45142
6.656,-0.28858
6.66,-0.09634
6.664,0.23012
6.668,0.60526
6.672,0.84135
6.676,0.86744
6.68,0.61485
6.684,0.15074
6.688,-0.22687
6.692,-0.43388
6.696,-0.53329
6.7,-0.53827
6.704,-0.48147
6.708,-0.45264
6.712,-0.44603
6.716,-0.42345
6.72,-0.41017
6.724,-0.41255
6.728,-0.42183
6.732,-0.42214
6.736,-0.42737
6.74,-0.43347
6.744,-0.44968
6.748,-0.44393
6.752,-0.42723
6.756,-0.43393
6.76,-0.44742
6.764,-0.43642
6.768,-0.42786
6.772,-0.42817
6.776,-0.43285
6.78,-0.4462
6.784,-0.431
6.788,-0.43564
6.792,-0.44447
6.796,-0.44044
6.8,-0.42893
6.804,-0.426
6.808,-0.43368
6.812,-0.4314
6.816,-0.42503
6.82,-0.42704
6.824,-0.43612
6.828,-0.43921
6.832,-0.42897
6.836,-0.41976
6.84,-0.42492
6.844,-0.44801
6.848,-0.44838
6.852,-0.43357
6.856,-0.43182
6.86,-0.44094
6.864,-0.43578
6.868,-0.42243
6.872,-0.41427
6.876,-0.42642
6.88,-0.42056
6.884,-0.40439
6.888,-0.41101
6.892,-0.41732
6.896,-0.42881
6.9,-0.4098
6.904,-0.40251
6.908,-0.40878
6.912,-0.42505
6.916,-0.40932
6.92,-0.41839
6.924,-0.43911
6.928,-0.46473
6.932,-0.45326
6.936,-0.45529
6.94,-0.45937
6.944,-0.48387
6.948,-0.48701
6.952,-0.48417
6.956,-0.49795
6.96,-0.50628
6.964,-0.502
6.968,-0.4842
6.972,-0.48983
6.976,-0.49917
6.98,-0.49441
6.984,-0.47361
6.988,-0.45756
6.992,-0.47145
6.996,-0.45083
7.0,-0.43007
7.004,-0.41854
7.008,-0.40793
7.012,-0.39788
7.016,-0.38173
7.02,-0.35369
7.024,-0.35297
7.028,-0.34944
7.032,-0.33532
7.036,-0.32139
7.04,-0.31056
7.044,-0.3187
7.048,-0.30089
7.052,-0.30444
7.056,-0.30404
7.06,-0.32219
7.064,-0.31552
7.068,-0.3131
7.072,-0.32026
7.076,-0.32504
7.08,-0.3245
7.084,-0.3101
7.088,-0.31263
7.092,-0.32606
7.096,-0.32816
7.1,-0.32271
7.104,-0.31621
7.108,-0.32885
7.112,-0.33442
7.116,-0.32002
7.12,-0.31693
7.124,-0.33018
7.128,-0.33412
7.132,-0.3239
7.136,-0.32171
7.14,-0.3199
7.144,-0.34352
7.148,-0.34775
7.152,-0.33718
7.156,-0.34626
7.16,-0.35653
7.164,-0.35333
7.168,-0.34047
7.172,-0.33347
7.176,-0.35092
7.18,-0.34507
7.184,-0.33198
7.188,-0.33284
7.192,-0.34576
7.196,-0.35032
7.2,-0.34212
7.204,-0.32989
7.208,-0.35278
7.212,-0.3546
7.216,-0.33581
7.22,-0.34604
7.224,-0.35505
7.228,-0.37968
7.232,-0.35633
7.236,-0.34333
7.24,-0.35233
7.244,-0.3628
7.248,-0.35661
7.252,-0.34186
7.256,-0.35385
7.26,-0.35943
7.264,-0.35399
7.268,-0.34712
7.272,-0.34326
7.276,-0.3567
7.28,-0.35332
7.284,-0.34115
7.288,-0.34165
7.292,-0.36668
7.296,-0.36097
7.3,-0.32944
7.304,-0.31826
7.308,-0.30097
7.312,-0.29997
7.316,-0.29752
7.32,-0.2849
7.324,-0.26494
7.328,-0.2704
7.332,-0.26388
7.336,-0.24937
7.34,-0.24876
7.344,-0.26233
7.348,-0.26194
7.352,-0.25195
7.356,-0.26354
7.36,-0.28216
7.364,-0.27598
7.368,-0.28522
7.372,-0.25855
7.376,-0.24224
7.38,-0.2574
7.384,-0.28579
7.388,-0.29636
7.392,-0.32063
7.396,-0.34682
7.4,-0.35365
7.404,-0.35297
7.408,-0.37103
7.412,-0.38669
7.416,-0.36411
7.42,-0.352
7.424,-0.36382
7.428,-0.37006
7.432,-0.36745
7.436,-0.36134
7.44,-0.36534
7.444,-0.38307
7.448,-0.37954
7.452,-0.35946
7.456,-0.37972
7.46,-0.39111
7.464,-0.39533
7.468,-0.3808
7.472,-0.39331
7.476,-0.43956
7.48,-0.49439
7.484,-0.51838
7.488,-0.54933
7.492,-0.58209
7.496,-0.46776
7.5,-0.25932
7.504,-0.01784
7.508,0.32244
7.512,0.67795
7.516,0.88616
7.52,0.79444
7.524,0.33746
7.528,-0.23163
7.532,-0.50655
7.536,-0.49956
7.54,-0.45152
7.544,-0.41791
7.548,-0.41551
7.552,-0.40645
7.556,-0.39397
7.56,-0.41965
7.564,-0.43115
7.568,-0.41475
7.572,-0.41388
7.576,-0.42112
7.58,-0.42506
7.584,-0.40594
7.588,-0.41385
7.592,-0.41545
7.596,-0.41071
7.6,-0.39055
7.604,-0.39215
7.608,-0.4014
7.612,-0.39938
7.616,-0.39773
7.62,-0.39799
7.624,-0.40234
7.628,-0.40341
7.632,-0.40328
7.636,-0.40231
7.64,-0.39684
7.644,-0.4117
7.648,-0.41139
7.652,-0.40089
7.656,-0.39661
7.66,-0.41141
7.664,-0.40887
7.668,-0.41307
7.672,-0.40508
7.676,-0.40696
7.68,-0.4076
7.684,-0.39698
7.688,-0.40102
7.692,-0.40572
7.696,-0.39583
7.7,-0.39254
7.704,-0.39158
7.708,-0.39566
7.712,-0.41956
7.716,-0.40752
7.72,-0.3986
7.724,-0.40875
7.728,-0.42058
7.732,-0.40088
7.736,-0.39813
7.74,-0.40926
7.744,-0.42848
7.748,-0.41797
7.752,-0.40433
7.756,-0.40575
7.76,-0.42879
7.764,-0.42278
7.768,-0.40946
7.772,-0.40669
7.776,-0.41838
7.78,-0.42672
7.784,-0.41671
7.788,-0.40886
7.792,-0.42155
7.796,-0.42948
7.8,-0.41685
7.804,-0.40863
7.808,-0.41431
7.812,-0.40097
7.816,-0.37316
7.82,-0.35719
7.824,-0.34937
7.828,-0.34872
7.832,-0.3266
7.836,-0.30776
7.84,-0.31523
7.844,-0.31705
7.848,-0.3068
7.852,-0.2976
7.856,-0.29095
7.86,-0.29544
7.864,-0.2872
7.868,-0.27786
7.872,-0.2745
7.876,-0.28821
7.88,-0.28615
7.884,-0.27996
7.888,-0.27985
7.892,-0.2985
7.896,-0.30012
7.9,-0.28593
7.904,-0.28526
7.908,-0.30111
7.912,-0.30382
7.916,-0.2977
7.92,-0.28831
7.924,-0.29573
7.928,-0.31109
7.932,-0.29479
7.936,-0.30353
7.94,-0.30036
7.944,-0.31766
7.948,-0.31771
7.952,-0.30311
7.956,-0.30841
7.96,-0.33461
7.964,-0.32824
7.968,-0.31085
7.972,-0.32211
7.976,-0.33386
7.98,-0.33657
7.984,-0.31693
7.988,-0.32946
7.992,-0.34052
7.996,-0.35041
8.0,-0.31814
8.004,-0.32219
8.008,-0.33727
8.012,-0.3457
8.016,-0.33701
8.02,-0.32952
8.024,-0.34818
8.028,-0.35334
8.032,-0.33951
8.036,-0.3345
8.04,-0.34082
8.044,-0.34214
8.048,-0.33683
8.052,-0.32777
8.056,-0.32594
8.06,-0.33979
8.064,-0.33708
8.068,-0.31603
8.072,-0.31999
8.076,-0.3367
8.08,-0.32466
8.084,-0.32114
8.088,-0.31599
8.092,-0.32665
8.096,-0.34268
8.1,-0.31827
8.104,-0.31371
8.108,-0.32325
8.112,-0.33704
8.116,-0.32187
8.12,-0.31019
8.124,-0.30993
8.128,-0.29629
8.132,-0.26563
8.136,-0.2493
8.14,-0.25125
8.144,-0.26025
8.148,-0.23207
8.152,-0.2257
8.156,-0.22765
8.16,-0.21534
8.164,-0.22652
8.168,-0.23007
8.172,-0.23306
8.176,-0.25171
8.18,-0.24303
8.184,-0.23839
8.188,-0.23926
8.192,-0.22974
8.196,-0.20486
8.2,-0.21578
8.204,-0.25496
8.208,-0.26781
8.212,-0.2951
8.216,-0.30252
8.22,-0.30932
8.224,-0.32602
8.228,-0.34992
8.232,-0.34286
8.236,-0.33303
8.24,-0.3373
8.244,-0.34752
8.248,-0.34992
8.252,-0.33784
8.256,-0.3444
8.26,-0.36558
8.264,-0.35308
8.268,-0.33957
8.272,-0.33294
8.276,-0.34299
8.28,-0.35745
8.284,-0.34479
8.288,-0.38045
8.292,-0.45406
8.296,-0.49361
8.3,-0.52824
8.304,-0.53282
8.308,-0.41139
8.312,-0.199
8.316,0.09137
8.32,0.47747
8.324,0.82135
8.328,0.92181
8.332,0.65032
8.336,0.04005
8.34,-0.40691
8.344,-0.48456
8.348,-0.39653
8.352,-0.35354
8.356,-0.36843
8.36,-0.38479
8.364,-0.37921
8.368,-0.3699
8.372,-0.37402
8.376,-0.39112
8.38,-0.38723
8.384,-0.38199
8.388,-0.37886
8.392,-0.39028
8.396,-0.40806
8.4,-0.39077
8.404,-0.38378
8.408,-0.39105
8.412,-0.40775
8.416,-0.39175
8.42,-0.38457
8.424,-0.39003
8.428,-0.39412
8.432,-0.38709
8.436,-0.37499
8.44,-0.38184
8.444,-0.39531
8.448,-0.38548
8.452,-0.3748
8.456,-0.38322
8.46,-0.397
8.464,-0.38433
8.468,-0.37212
8.472,-0.36692
8.476,-0.38929
8.48,-0.39029
8.484,-0.37854
8.488,-0.37238
8.492,-0.37181
8.496,-0.37586
8.5,-0.36831
8.504,-0.35702
8.508,-0.37866
8.512,-0.37243
8.516,-0.37589
8.52,-0.36755
8.524,-0.37292
8.528,-0.38738
8.532,-0.37724
8.536,-0.37707
8.54,-0.37202
8.544,-0.37896
8.548,-0.38639
8.552,-0.37539
8.556,-0.37272
8.56,-0.37878
8.564,-0.37991
8.568,-0.38023
8.572,-0.37694
8.576,-0.39247
8.58,-0.38925
8.584,-0.38078
8.588,-0.37483
8.592,-0.38371
8.596,-0.38822
8.6,-0.37418
8.604,-0.36109
8.608,-0.37736
8.612,-0.37309
8.616,-0.34216
8.62,-0.32731
8.624,-0.32609
8.628,-0.32836
8.632,-0.3181
8.636,-0.31611
8.64,-0.30863
8.644,-0.29825
8.648,-0.28165
8.652,-0.26408
8.656,-0.26344
8.66,-0.28201
8.664,-0.26777
8.668,-0.24936
8.672,-0.2669
8.676,-0.28305
8.68,-0.28507
8.684,-0.27791
8.688,-0.26749
8.692,-0.27474
8.696,-0.28282
8.7,-0.27546
8.704,-0.26615
8.708,-0.27415
8.712,-0.28883
8.716,-0.28439
8.72,-0.27373
8.724,-0.275
8.728,-0.29315
8.732,-0.27317
8.736,-0.27034
8.74,-0.27753
8.744,-0.29817
8.748,-0.29243
8.752,-0.29441
8.756,-0.29583
8.76,-0.29834
8.764,-0.29697
8.768,-0.29071
8.772,-0.29378
8.776,-0.31324
8.78,-0.3188
8.784,-0.30973
8.788,-0.30051
8.792,-0.31988
8.796,-0.32487
8.8,-0.30906
8.804,-0.30964
8.808,-0.31292
8.812,-0.32231
8.816,-0.29746
8.82,-0.3002
8.824,-0.30927
8.828,-0.32079
8.832,-0.31632
8.836,-0.30481
8.84,-0.31306
8.844,-0.32439
8.848,-0.31551
8.852,-0.3068
8.856,-0.31843
8.86,-0.32072
8.864,-0.31124
8.868,-0.29799
8.872,-0.28393
8.876,-0.29591
8.88,-0.30978
8.884,-0.29931
8.888,-0.30604
8.892,-0.31615
8.896,-0.31187
8.9,-0.29885
8.904,-0.29614
8.908,-0.3098
8.912,-0.3076
8.916,-0.26763
8.92,-0.24566
8.924,-0.24855
8.928,-0.24166
8.932,-0.22503
8.936,-0.21702
8.94,-0.2052
8.944,-0.19625
8.948,-0.19092
8.952,-0.17402
8.956,-0.18491
8.96,-0.21319
8.964,-0.21023
8.968,-0.21049
8.972,-0.20899
8.976,-0.22027
8.98,-0.21481
8.984,-0.17541
8.988,-0.17786
8.992,-0.24023
8.996,-0.25654
9.0,-0.26655
9.004,-0.28075
9.008,-0.2952
9.012,-0.30711
9.016,-0.30973
9.02,-0.29692
9.024,-0.29838
9.028,-0.31253
9.032,-0.31049
9.036,-0.30192
9.04,-0.30023
9.044,-0.31452
9.048,-0.32316
9.052,-0.31976
9.056,-0.31987
9.06,-0.334
9.064,-0.3366
9.068,-0.31843
9.072,-0.32012
9.076,-0.35433
9.08,-0.39049
9.084,-0.43084
9.088,-0.45745
9.092,-0.51333
9.096,-0.51497
9.1,-0.37066
9.104,-0.17336
9.108,0.07704
9.112,0.47086
9.116,0.79614
9.12,0.85011
9.124,0.57079
9.128,0.02997
9.132,-0.37579
9.136,-0.45674
9.14,-0.40228
9.144,-0.36715
9.148,-0.35512
9.152,-0.34996
9.156,-0.34707
9.16,-0.35827
9.164,-0.34611
9.168,-0.34064
9.172,-0.33415
9.176,-0.34317
9.18,-0.35023
9.184,-0.33681
9.188,-0.33734
9.192,-0.35337
9.196,-0.36339
9.2,-0.36221
9.204,-0.346
9.208,-0.3604
9.212,-0.35768
9.216,-0.35114
9.22,-0.35293
9.224,-0.35288
9.228,-0.35367
9.232,-0.33373
9.236,-0.33231
9.24,-0.3431
9.244,-0.35264
9.248,-0.33951
9.252,-0.34194
9.256,-0.35379
9.26,-0.36345
9.264,-0.35892
9.268,-0.34461
9.272,-0.36098
9.276,-0.36792
9.28,-0.36704
9.284,-0.35161
9.288,-0.34442
9.292,-0.34453
9.296,-0.33706
9.3,-0.32705
9.304,-0.33911
9.308,-0.35001
9.312,-0.35074
9.316,-0.35737
9.32,-0.35507
9.324,-0.35631
9.328,-0.36203
9.332,-0.3426
9.336,-0.33733
9.34,-0.34597
9.344,-0.35287
9.348,-0.34758
9.352,-0.33585
9.356,-0.35036
9.36,-0.37701
9.364,-0.37896
9.368,-0.35625
9.372,-0.35742
9.376,-0.37581
9.38,-0.37774
9.384,-0.36215
9.388,-0.34615
9.392,-0.363
9.396,-0.3641
9.4,-0.34465
9.404,-0.32817
9.408,-0.33251
9.412,-0.32801
9.416,-0.30892
9.42,-0.28735
9.424,-0.29109
9.428,-0.29468
9.432,-0.27787
9.436,-0.2613
9.44,-0.26397
9.444,-0.26726
9.448,-0.25283
9.452,-0.24655
9.456,-0.24589
9.46,-0.2618
9.464,-0.26142
9.468,-0.24743
9.472,-0.24492
9.476,-0.26472
9.48,-0.27531
9.484,-0.26642
9.488,-0.27269
9.492,-0.28299
9.496,-0.28558
9.5,-0.27413
9.504,-0.26903
9.508,-0.27901
9.512,-0.28754
9.516,-0.28021
9.52,-0.28145
9.524,-0.28551
9.528,-0.28466
9.532,-0.28378
9.536,-0.27654
9.54,-0.28515
9.544,-0.30406
9.548,-0.29959
9.552,-0.30313
9.556,-0.31632
9.56,-0.31598
9.564,-0.3057
9.568,-0.3052
9.572,-0.31099
9.576,-0.32289
9.58,-0.3157
9.584,-0.31591
9.588,-0.30852
9.592,-0.31815
9.596,-0.32008
9.6,-0.30737
9.604,-0.3128
9.608,-0.31688
9.612,-0.32679
9.616,-0.3205
9.62,-0.30561
9.624,-0.30292
9.628,-0.30885
9.632,-0.30489
9.636,-0.31399
9.64,-0.30546
9.644,-0.31849
9.648,-0.30731
9.652,-0.29577
9.656,-0.30142
9.66,-0.32393
9.664,-0.32057
9.668,-0.30756
9.672,-0.29637
9.676,-0.31874
9.68,-0.32153
9.684,-0.28871
9.688,-0.26658
9.692,-0.25949
9.696,-0.26438
9.7,-0.24841
9.704,-0.2243
9.708,-0.22077
9.712,-0.23196
9.716,-0.20678
9.72,-0.20685
9.724,-0.2091
9.728,-0.2304
9.732,-0.23675
9.736,-0.22418
9.74,-0.24139
9.744,-0.2618
9.748,-0.2585
9.752,-0.22334
9.756,-0.21638
9.76,-0.26962
9.764,-0.2756
9.768,-0.28305
9.772,-0.30973
9.776,-0.33085
9.78,-0.34147
9.784,-0.32234
9.788,-0.31052
9.792,-0.3174
9.796,-0.33196
9.8,-0.32455
9.804,-0.32866
9.808,-0.34442
9.812,-0.34972
9.816,-0.35055
9.82,-0.34433
9.824,-0.36059
9.828,-0.35896
9.832,-0.35172
9.836,-0.34821
9.84,-0.34505
9.844,-0.36272
9.848,-0.38692
9.852,-0.42127
9.856,-0.4425
9.86,-0.50091
9.864,-0.53832
9.868,-0.44754
9.872,-0.27071
9.876,-0.0524
9.88,0.30272
9.884,0.66467
9.888,0.83278
9.892,0.69273
9.896,0.19438
9.9,-0.25667
9.904,-0.4486
9.908,-0.46825
9.912,-0.4216
9.916,-0.37676
9.92,-0.37272
9.924,-0.37383
9.928,-0.39283
9.932,-0.39127
9.936,-0.38128
9.94,-0.38738
9.944,-0.38248
9.948,-0.37168
9.952,-0.36339
9.956,-0.37748
9.96,-0.38363
9.964,-0.37295
9.968,-0.36616
9.972,-0.37337
9.976,-0.38774
9.98,-0.39021
9.984,-0.38428
9.988,-0.39091
9.992,-0.39311
9.996,-0.403
10.0,-0.39427
10.004,-0.39143
10.008,-0.40056
10.012,-0.40689
10.016,-0.38125
10.02,-0.38055
10.024,-0.39472
10.028,-0.3941
10.032,-0.38903
10.036,-0.38923
10.04,-0.40278
10.044,-0.40292
10.048,-0.3938
10.052,-0.39204
10.056,-0.39294
10.06,-0.40378
10.064,-0.40308
10.068,-0.38836
10.072,-0.39513
10.076,-0.40012
10.08,-0.39682
10.084,-0.37621
10.088,-0.3748
10.092,-0.3882
10.096,-0.39335
10.1,-0.38021
10.104,-0.3823
10.108,-0.38829
10.112,-0.39402
10.116,-0.40048
10.12,-0.40675
10.124,-0.41896
10.128,-0.42913
10.132,-0.42824
10.136,-0.42047
10.14,-0.43551
10.144,-0.46073
10.148,-0.45319
10.152,-0.42693
10.156,-0.43844
10.16,-0.44677
10.164,-0.43912
10.168,-0.4249
10.172,-0.42542
10.176,-0.43049
10.18,-0.42143
10.184,-0.40516
10.188,-0.37738
10.192,-0.38088
10.196,-0.3654
10.2,-0.34758
10.204,-0.33599
10.208,-0.32555
10.212,-0.32332
10.216,-0.31113
10.22,-0.29543
10.224,-0.29582
10.228,-0.29134
10.232,-0.29118
10.236,-0.2853
10.24,-0.28487
10.244,-0.28839
10.248,-0.29013
10.252,-0.27439
10.256,-0.27004
10.26,-0.28781
10.264,-0.28419
10.268,-0.27403
10.272,-0.27612
10.276,-0.29501
10.28,-0.30838
10.284,-0.29238
10.288,-0.28438
10.292,-0.30722
10.296,-0.31424
10.3,-0.29466
10.304,-0.29419
10.308,-0.30411
10.312,-0.30778
10.316,-0.3031
10.32,-0.2965
10.324,-0.30701
10.328,-0.31151
10.332,-0.31155
10.336,-0.29731
10.34,-0.3018
10.344,-0.30849
10.348,-0.30626
10.352,-0.29799
10.356,-0.30131
10.36,-0.32285
10.364,-0.32077
10.368,-0.31817
10.372,-0.31055
10.376,-0.33024
10.38,-0.33119
10.384,-0.32072
10.388,-0.31388
10.392,-0.3273
10.396,-0.32914
10.4,-0.3108
10.404,-0.30364
10.408,-0.31705
10.412,-0.33115
10.416,-0.30771
10.42,-0.30572
10.424,-0.31113
10.428,-0.32911
10.432,-0.33027
10.436,-0.32283
10.44,-0.32373
10.444,-0.33263
10.448,-0.32287
10.452,-0.31039
10.456,-0.31549
10.46,-0.32353
10.464,-0.31644
10.468,-0.30645
10.472,-0.30894
10.476,-0.31751
10.48,-0.31743
10.484,-0.30554
10.488,-0.2929
10.492,-0.30687
10.496,-0.30521
10.5,-0.28273
10.504,-0.2688
10.508,-0.2726
10.512,-0.27209
10.516,-0.24479
10.52,-0.23727
10.524,-0.23812
10.528,-0.23481
10.532,-0.21944
10.536,-0.20585
10.54,-0.20645
10.544,-0.21441
10.548,-0.22058
10.552,-0.21659
10.556,-0.21916
10.56,-0.22421
10.564,-0.23537
10.568,-0.2261
10.572,-0.2128
10.576,-0.24343
10.58,-0.24275
10.584,-0.20156
10.588,-0.19709
10.592,-0.23091
10.596,-0.27119
10.6,-0.27834
10.604,-0.29432
10.608,-0.31637
10.612,-0.32239
10.616,-0.33225
10.62,-0.32754
10.624,-0.32326
10.628,-0.3212
10.632,-0.3265
10.636,-0.31116
10.64,-0.30925
10.644,-0.32452
10.648,-0.32406
10.652,-0.32188
10.656,-0.32526
10.66,-0.34892
10.664,-0.35427
10.668,-0.32497
10.672,-0.32558
10.676,-0.34108
10.68,-0.34563
10.684,-0.34405
10.688,-0.37537
10.692,-0.42776
10.696,-0.46245
10.7,-0.48587
10.704,-0.51725
10.708,-0.46678
10.712,-0.27474
10.716,-0.03473
10.72,0.30187
10.724,0.66882
10.728,0.8929
10.732,0.90851
10.736,0.54322
10.74,-0.03541
10.744,-0.40382
10.748,-0.4497
10.752,-0.38921
10.756,-0.35968
10.76,-0.37268
10.764,-0.37604
10.768,-0.35347
10.772,-0.36721
10.776,-0.38092
10.78,-0.38086
10.784,-0.36695
10.788,-0.36934
10.792,-0.36936
10.796,-0.37609
10.8,-0.37096
10.804,-0.36702
10.808,-0.3781
10.812,-0.37245
10.816,-0.36032
10.82,-0.35919
10.824,-0.35386
10.828,-0.36872
10.832,-0.35999
10.836,-0.35003
10.84,-0.34971
10.844,-0.35681
10.848,-0.36178
10.852,-0.35301
10.856,-0.3552
10.86,-0.3706
10.864,-0.35835
10.868,-0.35246
10.872,-0.3511
10.876,-0.35998
10.88,-0.37507
10.884,-0.3579
10.888,-0.34488
10.892,-0.3538
10.896,-0.37205
10.9,-0.35689
10.904,-0.34581
10.908,-0.35731
10.912,-0.36988
10.916,-0.36015
10.92,-0.3511
10.924,-0.36101
10.928,-0.36688
10.932,-0.36846
10.936,-0.35158
10.94,-0.35301
10.944,-0.36243
10.948,-0.35008
10.952,-0.34813
10.956,-0.34624
10.96,-0.36519
10.964,-0.36445
10.968,-0.35632
10.972,-0.36391
10.976,-0.37031
10.98,-0.38491
10.984,-0.37395
10.988,-0.37083
10.992,-0.38976
10.996,-0.38388
11.0,-0.38182
11.004,-0.37596
11.008,-0.3795
11.012,-0.38649
11.016,-0.37103
11.02,-0.35951
11.024,-0.33974
11.028,-0.32868
11.032,-0.30419
11.036,-0.28919
11.04,-0.289
11.044,-0.28595
11.048,-0.28325
11.052,-0.26564
11.056,-0.2565
11.06,-0.27585
11.064,-0.2597
11.068,-0.24736
11.072,-0.24769
11.076,-0.2656
11.08,-0.24854
11.084,-0.23835
11.088,-0.24168
11.092,-0.25277
11.096,-0.25902
11.1,-0.24734
11.104,-0.2511
11.108,-0.25352
11.112,-0.26564
11.116,-0.24605
11.12,-0.24636
11.124,-0.2485
11.128,-0.26643
11.132,-0.26817
11.136,-0.26594
11.14,-0.26754
11.144,-0.2843
11.148,-0.27125
11.152,-0.26723
11.156,-0.27236
11.16,-0.28413
11.164,-0.28349
11.168,-0.28279
11.172,-0.28096
11.176,-0.29038
11.18,-0.29625
11.184,-0.27777
11.188,-0.27577
11.192,-0.29417
11.196,-0.28859
11.2,-0.29538
11.204,-0.28538
11.208,-0.30152
11.212,-0.31453
11.216,-0.30859
11.22,-0.29127
11.224,-0.30421
11.228,-0.31921
11.232,-0.31319
11.236,-0.29981
11.24,-0.30636
11.244,-0.31884
11.248,-0.31845
11.252,-0.30238
11.256,-0.29381
11.26,-0.31172
11.264,-0.30855
11.268,-0.30035
11.272,-0.29241
11.276,-0.31679
11.28,-0.31881
11.284,-0.30416
11.288,-0.30487
11.292,-0.31646
11.296,-0.32371
11.3,-0.31038
11.304,-0.29532
11.308,-0.31146
11.312,-0.3168
11.316,-0.29853
11.32,-0.29256
11.324,-0.29525
11.328,-0.30579
11.332,-0.29408
11.336,-0.28916
11.34,-0.29312
11.344,-0.30675
11.348,-0.2967
11.352,-0.27931
11.356,-0.27742
11.36,-0.27382
11.364,-0.2417
11.368,-0.23502
11.372,-0.23956
11.376,-0.24395
11.38,-0.22739
11.384,-0.21788
11.388,-0.20557
11.392,-0.20054
11.396,-0.20952
11.4,-0.19578
11.404,-0.20816
11.408,-0.21363
11.412,-0.2276
11.416,-0.20775
11.42,-0.19862
11.424,-0.22208
11.428,-0.217
11.432,-0.18599
11.436,-0.17577
11.44,-0.22127
11.444,-0.26403
11.448,-0.27588
11.452,-0.28399
11.456,-0.30052
11.46,-0.31888
11.464,-0.32425
11.468,-0.31696
11.472,-0.31976
11.476,-0.3364
11.48,-0.33614
11.484,-0.32937
11.488,-0.32061
11.492,-0.33986
11.496,-0.343
11.5,-0.33221
11.504,-0.33206
11.508,-0.33734
11.512,-0.33919
11.516,-0.33366
11.52,-0.33135
11.524,-0.34062
11.528,-0.37407
11.532,-0.41337
11.536,-0.4439
11.54,-0.44775
11.544,-0.46948
11.548,-0.48751
11.552,-0.54057
11.556,-0.57089
11.56,-0.5171
11.564,-0.37209
11.568,-0.18923
11.572,0.04181
11.576,0.37396
11.58,0.69919
11.584,0.88349
11.588,0.80457
11.592,0.37221
11.596,-0.17263
11.6,-0.43068
11.604,-0.44734
11.608,-0.39526
11.612,-0.37393
11.616,-0.37048
11.62,-0.36857
11.624,-0.35733
11.628,-0.37532
11.632,-0.37551
11.636,-0.36015
11.64,-0.3641
11.644,-0.37459
11.648,-0.37747
11.652,-0.35923
11.656,-0.36152
11.66,-0.37967
11.664,-0.37223
11.668,-0.35394
11.672,-0.3583
11.676,-0.372
11.68,-0.37386
11.684,-0.35271
11.688,-0.35176
11.692,-0.36914
11.696,-0.37371
11.7,-0.35407
11.704,-0.3585
11.708,-0.38192
11.712,-0.38757
11.716,-0.35931
11.72,-0.36326
11.724,-0.35654
11.728,-0.3639
11.732,-0.36164
11.736,-0.34393
11.74,-0.35271
11.744,-0.36645
11.748,-0.366
11.752,-0.35747
11.756,-0.36486
11.76,-0.36793
11.764,-0.36135
11.768,-0.35499
11.772,-0.36785
11.776,-0.38329
11.78,-0.37066
11.784,-0.34646
11.788,-0.34748
11.792,-0.36906
11.796,-0.38317
11.8,-0.37357
11.804,-0.35819
11.808,-0.36592
11.812,-0.37186
11.816,-0.35817
11.82,-0.35592
11.824,-0.35474
11.828,-0.37097
11.832,-0.36672
11.836,-0.36933
11.84,-0.38472
11.844,-0.38809
11.848,-0.3752
11.852,-0.37069
11.856,-0.36281
11.86,-0.37938
11.864,-0.38003
11.868,-0.36095
11.872,-0.36035
11.876,-0.36616
11.88,-0.35676
11.884,-0.33465
11.888,-0.32041
11.892,-0.31814
11.896,-0.3192
11.9,-0.29306
11.904,-0.28745
11.908,-0.28941
11.912,-0.27337
11.916,-0.26612
11.92,-0.25948
11.924,-0.26703
11.928,-0.2814
11.932,-0.27162
11.936,-0.25838
11.94,-0.26695
11.944,-0.27855
11.948,-0.26937
11.952,-0.25204
11.956,-0.24861
11.96,-0.25834
11.964,-0.25556
11.968,-0.25705
11.972,-0.2645
11.976,-0.28695
11.98,-0.29186
11.984,-0.27575
11.988,-0.28111
11.992,-0.27987
11.996,-0.287
12.0,-0.27772
12.004,-0.27527
12.008,-0.29899
12.012,-0.30866
12.016,-0.28959
12.02,-0.28687
12.024,-0.29582
12.028,-0.30434
12.032,-0.29878
12.036,-0.28917
12.04,-0.2871
12.044,-0.31778
12.048,-0.31577
12.052,-0.30498
12.056,-0.30275
12.06,-0.32473
12.064,-0.32286
12.068,-0.31671
12.072,-0.31841
12.076,-0.32958
12.08,-0.33277
12.084,-0.32052
12.088,-0.30971
12.092,-0.32253
12.096,-0.32725
12.1,-0.31177
12.104,-0.3117
12.108,-0.31918
12.112,-0.33223
12.116,-0.32376
12.12,-0.31396
12.124,-0.31502
12.128,-0.3289
12.132,-0.31822
12.136,-0.31557
12.14,-0.32863
12.144,-0.34108
12.148,-0.33933
12.152,-0.32056
12.156,-0.31998
12.16,-0.33738
12.164,-0.32716
12.168,-0.30768
12.172,-0.31714
12.176,-0.32636
12.18,-0.31586
12.184,-0.29594
12.188,-0.28106
12.192,-0.26457
12.196,-0.26241
12.2,-0.26055
12.204,-0.25627
12.208,-0.25501
12.212,-0.24887
12.216,-0.23213
12.22,-0.20501
12.224,-0.22015
12.228,-0.23267
12.232,-0.22476
12.236,-0.22734
12.24,-0.23133
12.244,-0.24108
12.248,-0.22987
12.252,-0.24497
12.256,-0.25342
12.26,-0.24498
12.264,-0.21698
12.268,-0.2075
12.272,-0.23749
12.276,-0.27208
12.28,-0.28106
12.284,-0.26838
12.288,-0.28192
12.292,-0.32207
12.296,-0.33894
12.3,-0.33208
12.304,-0.32993
12.308,-0.34922
12.312,-0.35703
12.316,-0.34847
12.32,-0.34665
12.324,-0.35332
12.328,-0.36322
12.332,-0.35853
12.336,-0.34756
12.34,-0.34706
12.344,-0.37025
12.348,-0.36624
12.352,-0.34597
12.356,-0.35423
12.36,-0.37862
12.364,-0.41238
12.368,-0.44979
12.372,-0.48855
12.376,-0.55196
12.38,-0.55859
12.384,-0.45688
12.388,-0.2893
12.392,-0.10336
12.396,0.23984
12.4,0.60079
12.404,0.78426
12.408,0.72198
12.412,0.33081
12.416,-0.12749
12.42,-0.39605
12.424,-0.49113
12.428,-0.46614
12.432,-0.4311
12.436,-0.4127
12.44,-0.40846
12.444,-0.41834
12.448,-0.39751
12.452,-0.4028
12.456,-0.40757
12.46,-0.41368
12.464,-0.40016
12.468,-0.39144
12.472,-0.39221
12.476,-0.40248
12.48,-0.40316
12.484,-0.40254
12.488,-0.40541
12.492,-0.40339
12.496,-0.41229
12.5,-0.39957
12.504,-0.38858
12.508,-0.39842
12.512,-0.39867
12.516,-0.39154
12.52,-0.38398
12.524,-0.40322
12.528,-0.41046
12.532,-0.41302
12.536,-0.40968
12.54,-0.41046
12.544,-0.42219
12.548,-0.41803
12.552,-0.41123
12.556,-0.41655
12.56,-0.42632
12.564,-0.42087
12.568,-0.42406
12.572,-0.41063
12.576,-0.412
12.58,-0.41266
12.584,-0.40638
12.588,-0.40121
12.592,-0.41039
12.596,-0.42429
12.6,-0.40904
12.604,-0.40066
12.608,-0.41458
12.612,-0.41697
12.616,-0.40805
12.62,-0.40316
12.624,-0.41381
12.628,-0.41821
12.632,-0.40525
12.636,-0.39062
12.64,-0.40664
12.644,-0.41922
12.648,-0.41608
12.652,-0.40555
12.656,-0.41396
12.66,-0.44419
12.664,-0.4423
12.668,-0.43741
12.672,-0.43414
12.676,-0.44479
12.68,-0.44176
12.684,-0.43419
12.688,-0.43614
12.692,-0.44582
12.696,-0.44251
12.7,-0.43401
12.704,-0.41651
12.708,-0.41258
12.712,-0.39621
12.716,-0.37372
12.72,-0.37135
12.724,-0.3688
12.728,-0.36288
12.732,-0.34005
12.736,-0.30553
12.74,-0.31427
12.744,-0.32457
12.748,-0.32321
12.752,-0.30385
12.756,-0.30592
12.76,-0.32866
12.764,-0.32643
12.768,-0.30909
12.772,-0.30979
12.776,-0.30588
12.78,-0.31731
12.784,-0.30486
12.788,-0.29809
12.792,-0.30856
12.796,-0.32075
12.8,-0.31635
12.804,-0.3115
12.808,-0.32464
12.812,-0.33799
12.816,-0.32393
12.82,-0.31372
12.824,-0.32075
12.828,-0.33184
12.832,-0.3294
12.836,-0.30014
12.84,-0.30769
12.844,-0.32368
12.848,-0.32556
12.852,-0.3193
12.856,-0.32706
12.86,-0.34974
12.864,-0.34872
12.868,-0.34679
12.872,-0.34603
12.876,-0.36123
12.88,-0.34981
12.884,-0.33712
12.888,-0.3506
12.892,-0.3505
12.896,-0.35303
12.9,-0.34234
12.904,-0.33491
12.908,-0.34954
12.912,-0.35486
12.916,-0.35506
12.92,-0.34488
12.924,-0.34786
12.928,-0.35981
12.932,-0.36665
12.936,-0.35172
12.94,-0.35298
12.944,-0.36829
12.948,-0.3584
12.952,-0.33903
12.956,-0.34863
12.96,-0.34787
12.964,-0.34005
12.968,-0.33977
12.972,-0.34083
12.976,-0.3454
12.98,-0.35904
12.984,-0.34497
12.988,-0.33994
12.992,-0.3506
12.996,-0.35246
13.0,-0.34334
13.004,-0.33062
13.008,-0.33839
13.012,-0.35765
13.016,-0.33769
13.02,-0.31275
13.024,-0.31759
13.028,-0.31385
13.032,-0.30121
13.036,-0.28115
13.04,-0.26832
13.044,-0.2874
13.048,-0.25463
13.052,-0.22891
13.056,-0.233
13.06,-0.25209
13.064,-0.25026
13.068,-0.24576
13.072,-0.25618
13.076,-0.26545
13.08,-0.2841
13.084,-0.2816
13.088,-0.26415
13.092,-0.2552
13.096,-0.26686
13.1,-0.29509
13.104,-0.29957
13.108,-0.33095
13.112,-0.35469
13.116,-0.34914
13.12,-0.35014
13.124,-0.36508
13.128,-0.3687
13.132,-0.36179
13.136,-0.35846
13.14,-0.3681
13.144,-0.38301
13.148,-0.38065
13.152,-0.36079
13.156,-0.37046
13.16,-0.39067
13.164,-0.387
13.168,-0.3638
13.172,-0.36752
13.176,-0.38357
13.18,-0.38154
13.184,-0.37337
13.188,-0.37456
13.192,-0.41125
13.196,-0.45965
13.2,-0.47685
13.204,-0.50113
13.208,-0.55368
13.212,-0.51432
13.216,-0.35654
13.22,-0.1559
13.224,0.10378
13.228,0.45042
13.232,0.75406
13.236,0.85287
13.24,0.66397
13.244,0.17223
13.248,-0.27543
13.252,-0.44765
13.256,-0.48324
13.26,-0.4579
13.264,-0.42644
13.268,-0.40931
13.272,-0.41162
13.276,-0.41968
13.28,-0.40669
13.284,-0.39066
13.288,-0.38936
13.292,-0.40597
13.296,-0.41612
13.3,-0.39993
13.304,-0.40158
13.308,-0.40853
13.312,-0.43096
13.316,-0.41051
13.32,-0.40754
13.324,-0.42318
13.328,-0.4423
13.332,-0.42232
13.336,-0.42073
13.34,-0.42384
13.344,-0.42368
13.348,-0.42605
13.352,-0.41755
13.356,-0.41856
13.36,-0.42588
13.364,-0.41881
13.368,-0.40934
13.372,-0.41046
13.376,-0.42412
13.38,-0.42529
13.384,-0.40747
13.388,-0.39851
13.392,-0.42002
13.396,-0.42538
13.4,-0.41798
13.404,-0.41662
13.408,-0.42608
13.412,-0.43724
13.416,-0.4249
13.42,-0.41648
13.424,-0.42342
13.428,-0.43693
13.432,-0.4295
13.436,-0.4265
13.44,-0.4162
13.444,-0.4229
13.448,-0.42943
13.452,-0.41837
13.456,-0.40311
13.46,-0.41637
13.464,-0.4195
13.468,-0.41828
13.472,-0.42237
13.476,-0.43466
13.48,-0.43765
13.484,-0.4223
13.488,-0.44264
13.492,-0.45844
13.496,-0.46516
13.5,-0.4651
13.504,-0.46473
13.508,-0.46972
13.512,-0.49141
13.516,-0.46629
13.52,-0.45529
13.524,-0.45877
13.528,-0.45176
13.532,-0.43329
13.536,-0.41297
13.54,-0.40168
13.544,-0.40275
13.548,-0.37768
13.552,-0.3632
13.556,-0.36243
13.56,-0.37432
13.564,-0.35617
13.568,-0.33358
13.572,-0.32913
13.576,-0.33359
13.58,-0.33859
13.584,-0.31376
13.588,-0.31028
13.592,-0.3209
13.596,-0.31948
13.6,-0.31599
13.604,-0.30803
13.608,-0.31645
13.612,-0.32658
13.616,-0.31839
13.62,-0.31257
13.624,-0.32689
13.628,-0.33782
13.632,-0.32749
13.636,-0.32282
13.64,-0.32714
13.644,-0.35032
13.648,-0.33393
13.652,-0.31415
13.656,-0.32804
13.66,-0.34398
13.664,-0.34498
13.668,-0.33506
13.672,-0.33249
13.676,-0.35223
13.68,-0.35751
13.684,-0.33656
13.688,-0.33144
13.692,-0.34885
13.696,-0.36944
13.7,-0.35338
13.704,-0.33367
13.708,-0.35579
13.712,-0.35047
13.716,-0.33613
13.72,-0.33002
13.724,-0.32709
13.728,-0.35438
13.732,-0.34731
13.736,-0.33937
13.74,-0.33956
13.744,-0.36588
13.748,-0.36027
13.752,-0.34932
13.756,-0.35067
13.76,-0.36414
13.764,-0.35738
13.768,-0.34774
13.772,-0.35098
13.776,-0.36059
13.78,-0.36133
13.784,-0.34457
13.788,-0.34793
13.792,-0.35627
13.796,-0.35832
13.8,-0.34828
13.804,-0.3333
13.808,-0.34973
13.812,-0.34545
13.816,-0.33195
13.82,-0.3405
13.824,-0.34816
13.828,-0.35519
13.832,-0.34228
13.836,-0.32954
13.84,-0.33036
13.844,-0.32943
13.848,-0.29966
13.852,-0.27636
13.856,-0.28022
13.86,-0.28889
13.864,-0.27602
13.868,-0.25145
13.872,-0.24009
13.876,-0.24025
13.88,-0.23651
13.884,-0.22276
13.888,-0.22499
13.892,-0.24339
13.896,-0.25634
13.9,-0.242
13.904,-0.24175
13.908,-0.26838
13.912,-0.26178
13.916,-0.22718
13.92,-0.2353
13.924,-0.28401
13.928,-0.31096
13.932,-0.32026
13.936,-0.32183
13.94,-0.33599
13.944,-0.35835
13.948,-0.3624
13.952,-0.34871
13.956,-0.33601
13.96,-0.34936
13.964,-0.35736
13.968,-0.33837
13.972,-0.34754
13.976,-0.3617
13.98,-0.37553
13.984,-0.36649
13.988,-0.35479
13.992,-0.36975
13.996,-0.37515
14.0,-0.36299
14.004,-0.36229
14.008,-0.37923
14.012,-0.38568
14.016,-0.39365
14.02,-0.43993
14.024,-0.47699
14.028,-0.52503
14.032,-0.54822
14.036,-0.43979
14.04,-0.24558
14.044,-0.01841
14.048,0.33757
14.052,0.70486
14.056,0.90645
14.06,0.81114
14.064,0.34174
14.068,-0.18618
14.072,-0.45017
14.076,-0.46558
14.08,-0.40358
14.084,-0.37842
14.088,-0.38358
14.092,-0.39591
14.096,-0.40244
14.1,-0.40184
14.104,-0.40076
14.108,-0.39242
14.112,-0.40698
14.116,-0.39785
14.12,-0.38308
14.124,-0.39699
14.128,-0.40688
14.132,-0.39217
14.136,-0.37848
14.14,-0.39391
14.144,-0.40958
14.148,-0.39954
14.152,-0.38705
14.156,-0.3977
14.16,-0.40931
14.164,-0.40238
14.168,-0.3926
14.172,-0.3929
14.176,-0.39851
14.18,-0.41044
14.184,-0.39491
14.188,-0.38949
14.192,-0.40129
14.196,-0.38834
14.2,-0.38395
14.204,-0.37308
14.208,-0.38175
14.212,-0.39077
14.216,-0.38781
14.22,-0.38406
14.224,-0.3845
14.228,-0.40109
14.232,-0.39543
14.236,-0.36972
14.24,-0.3771
14.244,-0.3981
14.248,-0.39789
14.252,-0.38228
14.256,-0.37593
14.26,-0.3926
14.264,-0.38103
14.268,-0.36649
14.272,-0.36496
14.276,-0.37962
14.28,-0.37951
14.284,-0.37081
14.288,-0.36641
14.292,-0.38054
14.296,-0.40057
14.3,-0.39603
14.304,-0.37474
14.308,-0.39988
14.312,-0.40717
14.316,-0.39484
14.32,-0.37682
14.324,-0.38351
14.328,-0.40028
14.332,-0.37921
14.336,-0.37001
14.34,-0.36446
14.344,-0.35731
14.348,-0.34234
14.352,-0.3115
14.356,-0.30789
14.36,-0.30844
14.364,-0.29154
14.368,-0.27847
14.372,-0.27388
14.376,-0.28052
14.38,-0.28434
14.384,-0.27766
14.388,-0.26575
14.392,-0.27907
14.396,-0.29076
14.4,-0.27815
14.404,-0.27101
14.408,-0.27554
14.412,-0.28846
14.416,-0.28406
14.42,-0.26026
14.424,-0.26811
14.428,-0.28515
14.432,-0.26788
14.436,-0.26983
14.44,-0.28353
14.444,-0.29655
14.448,-0.29333
14.452,-0.27756
14.456,-0.27868
14.46,-0.2971
14.464,-0.30191
14.468,-0.28318
14.472,-0.28686
14.476,-0.29587
14.48,-0.30221
14.484,-0.28905
14.488,-0.2872
14.492,-0.2959
14.496,-0.30503
14.5,-0.30006
14.504,-0.28118
14.508,-0.30655
14.512,-0.31226
14.516,-0.30373
14.52,-0.29551
14.524,-0.31225
14.528,-0.33286
14.532,-0.31795
14.536,-0.31472
14.54,-0.31023
14.544,-0.32476
14.548,-0.31894
14.552,-0.30436
14.556,-0.3078
14.56,-0.31595
14.564,-0.31324
14.568,-0.30422
14.572,-0.30277
14.576,-0.30899
14.58,-0.3116
14.584,-0.30479
14.588,-0.29689
14.592,-0.32342
14.596,-0.328
14.6,-0.32182
14.604,-0.30516
14.608,-0.31461
14.612,-0.32799
14.616,-0.31163
14.62,-0.30436
14.624,-0.29643
14.628,-0.31552
14.632,-0.30651
14.636,-0.27813
14.64,-0.26585
14.644,-0.25124
14.648,-0.23328
14.652,-0.22688
14.656,-0.22831
14.66,-0.23588
14.664,-0.23287
14.668,-0.21504
14.672,-0.2015
14.676,-0.20537
14.68,-0.20111
14.684,-0.19486
14.688,-0.195
14.692,-0.2136
14.696,-0.22578
14.7,-0.22097
14.704,-0.21863
14.708,-0.22952
14.712,-0.24978
14.716,-0.23443
14.72,-0.19964
14.724,-0.18743
14.728,-0.228
14.732,-0.25432
14.736,-0.26206
14.74,-0.28719
14.744,-0.31961
14.748,-0.32403
14.752,-0.32904
14.756,-0.32853
14.76,-0.32938
14.764,-0.34169
14.768,-0.32633
14.772,-0.33055
14.776,-0.35117
14.78,-0.35156
14.784,-0.35403
14.788,-0.3453
14.792,-0.34397
14.796,-0.35372
14.8,-0.34111
14.804,-0.3392
14.808,-0.35347
14.812,-0.41255
14.816,-0.45224
14.82,-0.47364
14.824,-0.52837
14.828,-0.53845
14.832,-0.41128
14.836,-0.21762
14.84,0.04862
14.844,0.395
14.848,0.72855
14.852,0.8392
14.856,0.60217
14.86,0.08185
14.864,-0.34824
14.868,-0.45274
14.872,-0.41275
14.876,-0.37616
14.88,-0.37547
14.884,-0.36911
14.888,-0.36162
14.892,-0.37037
14.896,-0.37441
14.9,-0.35921
14.904,-0.35091
14.908,-0.36433
14.912,-0.3811
14.916,-0.37321
14.92,-0.36337
14.924,-0.37353
14.928,-0.38768
14.932,-0.38509
14.936,-0.37478
14.94,-0.37658
14.944,-0.38749
14.948,-0.37939
14.952,-0.37092
14.956,-0.3663
14.96,-0.38229
14.964,-0.36791
14.968,-0.35451
14.972,-0.35161
14.976,-0.36227
14.98,-0.36656
14.984,-0.35184
14.988,-0.36462
14.992,-0.36591
14.996,-0.37783
15.0,-0.35589
15.004,-0.36115
15.008,-0.37541
15.012,-0.38206
15.016,-0.37675
15.02,-0.36452
15.024,-0.36588
15.028,-0.37469
15.032,-0.35842
15.036,-0.34907
15.04,-0.35714
15.044,-0.36203
15.048,-0.3575
15.052,-0.3353
15.056,-0.33942
15.06,-0.35796
15.064,-0.34679
15.068,-0.34492
15.072,-0.35058
15.076,-0.35876
15.08,-0.36319
15.084,-0.36343
15.088,-0.36615
15.092,-0.36884
15.096,-0.38023
15.1,-0.36446
15.104,-0.35232
15.108,-0.36717
15.112,-0.37818
15.116,-0.37103
15.12,-0.36072
15.124,-0.37114
15.128,-0.38058
15.132,-0.36721
15.136,-0.35437
15.14,-0.35575
15.144,-0.35134
15.148,-0.34764
15.152,-0.33196
15.156,-0.32692
15.16,-0.33695
15.164,-0.32729
15.168,-0.30474
15.172,-0.29532
15.176,-0.30863
15.18,-0.29409
15.184,-0.27655
15.188,-0.2666
15.192,-0.28637
15.196,-0.2837
15.2,-0.26565
15.204,-0.25938
15.208,-0.2667
15.212,-0.27394
15.216,-0.26206
15.22,-0.25172
15.224,-0.26665
15.228,-0.28091
15.232,-0.29165
15.236,-0.28086
15.24,-0.28279
15.244,-0.30211
15.248,-0.30056
15.252,-0.29751
15.256,-0.29618
15.26,-0.29434
15.264,-0.31117
15.268,-0.30318
15.272,-0.29231
15.276,-0.3085
15.28,-0.31942
15.284,-0.30887
15.288,-0.3042
15.292,-0.31025
15.296,-0.30923
15.3,-0.30465
15.304,-0.30293
15.308,-0.30297
15.312,-0.31266
15.316,-0.31502
15.32,-0.31546
15.324,-0.32854
15.328,-0.34593
15.332,-0.32099
15.336,-0.31855
15.34,-0.32595
15.344,-0.32717
15.348,-0.32254
15.352,-0.32022
15.356,-0.31535
15.36,-0.33812
15.364,-0.33617
15.368,-0.32322
15.372,-0.32954
15.376,-0.33768
15.38,-0.33625
15.384,-0.32439
15.388,-0.31525
15.392,-0.3364
15.396,-0.34085
15.4,-0.32596
15.404,-0.32194
15.408,-0.32517
15.412,-0.33054
15.416,-0.31755
15.42,-0.31142
15.424,-0.31368
15.428,-0.33397
15.432,-0.33288
15.436,-0.30847
15.44,-0.2984
15.444,-0.28782
15.448,-0.2689
15.452,-0.26467
15.456,-0.25942
15.46,-0.26595
15.464,-0.2733
15.468,-0.25357
15.472,-0.23313
15.476,-0.2372
15.48,-0.24092
15.484,-0.23384
15.488,-0.2318
15.492,-0.23742
15.496,-0.24544
15.5,-0.22084
15.504,-0.22323
15.508,-0.24345
15.512,-0.2527
15.516,-0.22034
15.52,-0.22851
15.524,-0.27665
15.528,-0.30714
15.532,-0.31933
15.536,-0.3388
15.54,-0.34842
15.544,-0.35868
15.548,-0.35066
15.552,-0.33792
15.556,-0.33846
15.56,-0.3574
15.564,-0.35789
15.568,-0.34403
15.572,-0.34835
15.576,-0.35439
15.58,-0.35457
15.584,-0.34656
15.588,-0.3506
15.592,-0.35929
15.596,-0.37246
15.6,-0.39141
15.604,-0.43953
15.608,-0.47407
15.612,-0.51097
15.616,-0.56797
15.62,-0.49317
15.624,-0.36147
15.628,-0.25127
15.632,-0.08112
15.636,0.1973
15.64,0.56405
15.644,0.80434
15.648,0.94892
15.652,0.92366
15.656,0.65018
15.66,0.23039
15.664,-0.16466
15.668,-0.39697
15.672,-0.46538
15.676,-0.44348
15.68,-0.41557
15.684,-0.39113
15.688,-0.36946
15.692,-0.39517
15.696,-0.40105
15.7,-0.40674
15.704,-0.40217
15.708,-0.4031
15.712,-0.40075
15.716,-0.39136
15.72,-0.37922
15.724,-0.39822
15.728,-0.41701
15.732,-0.40232
15.736,-0.38989
15.74,-0.38408
15.744,-0.39959
15.748,-0.39312
15.752,-0.40318
15.756,-0.40736
15.76,-0.41131
15.764,-0.39408
15.768,-0.38887
15.772,-0.40352
15.776,-0.42859
15.78,-0.42058
15.784,-0.40603
15.788,-0.40444
15.792,-0.4094
15.796,-0.41318
15.8,-0.40287
15.804,-0.39786
15.808,-0.39012
15.812,-0.39685
15.816,-0.3892
15.82,-0.38959
15.824,-0.41012
15.828,-0.42198
15.832,-0.41118
15.836,-0.39874
15.84,-0.39381
15.844,-0.41406
15.848,-0.40983
15.852,-0.39895
15.856,-0.38569
15.86,-0.40154
15.864,-0.39912
15.868,-0.38353
15.872,-0.37637
15.876,-0.39515
15.88,-0.41611
15.884,-0.41724
15.888,-0.4118
15.892,-0.44188
15.896,-0.46139
15.9,-0.46187
15.904,-0.45462
15.908,-0.44946
15.912,-0.47225
15.916,-0.46219
15.92,-0.45503
15.924,-0.45308
15.928,-0.46689
15.932,-0.44791
15.936,-0.42159
15.94,-0.4159
15.944,-0.41641
15.948,-0.39644
15.952,-0.35967
15.956,-0.35163
15.96,-0.34695
15.964,-0.33501
15.968,-0.30978
15.972,-0.31018
15.976,-0.32896
15.98,-0.32884
15.984,-0.30019
15.988,-0.29833
15.992,-0.31532
15.996,-0.32134
16.0,-0.30232
16.004,-0.30152
16.008,-0.31545
16.012,-0.32397
16.016,-0.30435
16.02,-0.30915
16.024,-0.30644
16.028,-0.31217
16.032,-0.30413
16.036,-0.30346
16.04,-0.31148
16.044,-0.31413
16.048,-0.32335
16.052,-0.31975
16.056,-0.32274
16.06,-0.3432
16.064,-0.33354
16.068,-0.3269
16.072,-0.31628
16.076,-0.33655
16.08,-0.34514
16.084,-0.3325
16.088,-0.34193
16.092,-0.35167
16.096,-0.36182
16.1,-0.34571
16.104,-0.33338
16.108,-0.33721
16.112,-0.34116
16.116,-0.33383
16.12,-0.33157
16.124,-0.33598
16.128,-0.34581
16.132,-0.35116
16.136,-0.34716
16.14,-0.34732
16.144,-0.36415
16.148,-0.35857
16.152,-0.34911
16.156,-0.34219
16.16,-0.35474
16.164,-0.34764
16.168,-0.33635
16.172,-0.33808
16.176,-0.35387
16.18,-0.37464
16.184,-0.3513
16.188,-0.346
16.192,-0.36253
16.196,-0.35269
16.2,-0.33971
16.204,-0.34685
16.208,-0.35581
16.212,-0.3505
16.216,-0.34032
16.22,-0.3385
16.224,-0.33635
16.228,-0.34007
16.232,-0.30791
16.236,-0.28796
16.24,-0.27671
16.244,-0.28349
16.248,-0.27495
16.252,-0.25918
16.256,-0.24143
16.26,-0.25474
16.264,-0.24012
16.268,-0.22177
16.272,-0.23967
16.276,-0.25593
16.28,-0.27151
16.284,-0.25658
16.288,-0.24785
16.292,-0.27015
16.296,-0.2759
16.3,-0.25069
16.304,-0.23041
16.308,-0.24248
16.312,-0.27518
16.316,-0.2796
16.32,-0.29447
16.324,-0.32938
16.328,-0.35327
16.332,-0.35601
16.336,-0.35723
16.34,-0.36705
16.344,-0.37854
16.348,-0.35966
16.352,-0.34964
16.356,-0.35119
16.36,-0.37254
16.364,-0.35628
16.368,-0.35268
16.372,-0.34628
16.376,-0.35515
16.38,-0.35762
16.384,-0.35654
16.388,-0.3533
16.392,-0.36443
16.396,-0.3728
16.4,-0.38843
16.404,-0.44484
16.408,-0.48816
16.412,-0.53649
16.416,-0.56707
16.42,-0.46946
16.424,-0.27097
16.428,-0.02966
16.432,0.33675
16.436,0.72036
16.44,0.91667
16.444,0.75284
16.448,0.23473
16.452,-0.28451
16.456,-0.48685
16.46,-0.47542
16.464,-0.42057
16.468,-0.39564
16.472,-0.40781
16.476,-0.40967
16.48,-0.40611
16.484,-0.40224
16.488,-0.38289
16.492,-0.39892
16.496,-0.39956
16.5,-0.39736
16.504,-0.38881
16.508,-0.39945
16.512,-0.41301
16.516,-0.39403
16.52,-0.37739
16.524,-0.39493
16.528,-0.39613
16.532,-0.39561
16.536,-0.37893
16.54,-0.39
16.544,-0.40581
16.548,-0.40468
16.552,-0.39761
16.556,-0.3976
16.56,-0.40494
16.564,-0.38946
16.568,-0.38179
16.572,-0.38515
16.576,-0.39559
16.58,-0.40393
16.584,-0.39592
16.588,-0.38926
16.592,-0.40912
16.596,-0.40726
16.6,-0.4022
16.604,-0.40794
16.608,-0.40839
16.612,-0.4149
16.616,-0.40462
16.62,-0.39824
16.624,-0.40388
16.628,-0.39646
16.632,-0.40152
16.636,-0.38595
16.64,-0.3844
16.644,-0.40496
16.648,-0.3956
16.652,-0.38168
16.656,-0.38841
16.66,-0.40837
16.664,-0.40123
16.668,-0.40638
16.672,-0.4088
16.676,-0.42375
16.68,-0.43225
16.684,-0.41599
16.688,-0.42052
16.692,-0.43878
16.696,-0.43721
16.7,-0.43589
16.704,-0.43077
16.708,-0.44352
16.712,-0.43657
16.716,-0.42034
16.72,-0.41111
16.724,-0.40182
16.728,-0.40352
16.732,-0.37475
16.736,-0.35118
16.74,-0.34433
16.744,-0.35242
16.748,-0.32867
16.752,-0.31728
16.756,-0.30094
16.76,-0.3072
16.764,-0.30966
16.768,-0.28821
16.772,-0.28593
16.776,-0.29493
16.78,-0.29797
16.784,-0.28998
16.788,-0.28073
16.792,-0.29332
16.796,-0.28875
16.8,-0.28122
16.804,-0.26824
16.808,-0.27803
16.812,-0.29135
16.816,-0.27686
16.82,-0.27948
16.824,-0.29497
16.828,-0.30379
16.832,-0.29071
16.836,-0.27593
16.84,-0.27741
16.844,-0.31372
16.848,-0.30678
16.852,-0.29602
16.856,-0.29101
16.86,-0.30961
16.864,-0.30755
16.868,-0.29373
16.872,-0.30361
16.876,-0.32437
16.88,-0.31628
16.884,-0.30148
16.888,-0.29263
16.892,-0.31033
16.896,-0.32044
16.9,-0.31448
16.904,-0.30403
16.908,-0.31282
16.912,-0.333
16.916,-0.32327
16.92,-0.31437
16.924,-0.31457
16.928,-0.33411
16.932,-0.31729
16.936,-0.30326
16.94,-0.31167
16.944,-0.32412
16.948,-0.31472
16.952,-0.30215
16.956,-0.31644
16.96,-0.32347
16.964,-0.31926
16.968,-0.31669
16.972,-0.30706
16.976,-0.31449
16.98,-0.30603
16.984,-0.2877
16.988,-0.30115
16.992,-0.31297
16.996,-0.30669
17.0,-0.31
17.004,-0.30481
17.008,-0.3197
17.012,-0.32508
17.016,-0.30162
17.02,-0.29868
17.024,-0.31456
17.028,-0.31845
17.032,-0.31338
17.036,-0.29657
17.04,-0.2794
17.044,-0.25412
17.048,-0.24052
17.052,-0.22151
17.056,-0.22696
17.06,-0.23394
17.064,-0.21858
17.068,-0.19786
17.072,-0.18699
17.076,-0.19674
17.08,-0.2059
17.084,-0.20559
17.088,-0.21369
17.092,-0.2252
17.096,-0.22902
17.1,-0.21812
17.104,-0.2287
17.108,-0.24297
17.112,-0.22085
17.116,-0.19564
17.12,-0.19899
17.124,-0.23806
17.128,-0.26914
17.132,-0.26584
17.136,-0.28723
17.14,-0.29967
17.144,-0.30663
17.148,-0.31405
17.152,-0.3207
17.156,-0.32561
17.16,-0.34236
17.164,-0.33676
17.168,-0.33278
17.172,-0.33228
17.176,-0.35358
17.18,-0.34909
17.184,-0.33666
17.188,-0.3467
17.192,-0.35391
17.196,-0.35995
17.2,-0.33973
17.204,-0.34487
17.208,-0.35103
17.212,-0.35569
17.216,-0.35388
17.22,-0.38075
17.224,-0.45501
17.228,-0.48088
17.232,-0.51718
17.236,-0.53415
17.24,-0.4553
17.244,-0.28011
17.248,-0.04575
17.252,0.27193
17.256,0.67285
17.26,0.92227
17.264,0.97323
17.268,0.6797
17.272,0.09108
17.276,-0.35726
17.28,-0.4868
17.284,-0.43199
17.288,-0.38239
17.292,-0.37769
17.296,-0.38718
17.3,-0.36246
17.304,-0.34905
17.308,-0.36059
17.312,-0.3761
17.316,-0.36674
17.32,-0.36068
17.324,-0.3729
17.328,-0.38133
17.332,-0.38275
17.336,-0.3793
17.34,-0.38145
17.344,-0.39323
17.348,-0.39403
17.352,-0.38654
17.356,-0.37879
17.36,-0.38847
17.364,-0.39192
17.368,-0.3728
17.372,-0.37507
17.376,-0.38405
17.38,-0.37536
17.384,-0.36396
17.388,-0.36111
17.392,-0.37082
17.396,-0.37995
17.4,-0.35951
17.404,-0.36801
17.408,-0.39628
17.412,-0.39139
17.416,-0.37551
17.42,-0.37491
17.424,-0.37314
17.428,-0.38752
17.432,-0.38396
17.436,-0.36937
17.44,-0.37669
17.444,-0.38559
17.448,-0.38185
17.452,-0.377
17.456,-0.37125
17.46,-0.38073
17.464,-0.37478
17.468,-0.35614
17.472,-0.36466
17.476,-0.37388
17.48,-0.37568
17.484,-0.36835
17.488,-0.36463
17.492,-0.38275
17.496,-0.37925
17.5,-0.37423
17.504,-0.36829
17.508,-0.38345
17.512,-0.3991
17.516,-0.38933
17.52,-0.38811
17.524,-0.39065
17.528,-0.40317
17.532,-0.39437
17.536,-0.38775
17.54,-0.39105
17.544,-0.40165
17.548,-0.38195
17.552,-0.38121
17.556,-0.38231
17.56,-0.39704
17.564,-0.39711
17.568,-0.37219
17.572,-0.37212
17.576,-0.37528
17.58,-0.35542
17.584,-0.33377
17.588,-0.31925
17.592,-0.32391
17.596,-0.32279
17.6,-0.30087
17.604,-0.29
17.608,-0.29086
17.612,-0.29083
17.616,-0.27326
17.62,-0.2601
17.624,-0.27175
17.628,-0.27928
17.632,-0.27261
17.636,-0.26779
17.64,-0.26309
17.644,-0.27914
17.648,-0.28306
17.652,-0.26666
17.656,-0.27249
17.66,-0.28757
17.664,-0.28162
17.668,-0.27779
17.672,-0.2767
17.676,-0.28848
17.68,-0.29626
17.684,-0.28323
17.688,-0.27515
17.692,-0.27848
17.696,-0.28395
17.7,-0.28598
17.704,-0.28219
17.708,-0.30056
17.712,-0.30943
17.716,-0.31055
17.72,-0.29894
17.724,-0.30874
17.728,-0.32473
17.732,-0.30831
17.736,-0.30884
17.74,-0.31121
17.744,-0.32656
17.748,-0.3245
17.752,-0.31857
17.756,-0.3177
17.76,-0.32864
17.764,-0.33313
17.768,-0.32262
17.772,-0.31841
17.776,-0.31761
17.78,-0.31403
17.784,-0.30596
17.788,-0.30157
17.792,-0.32358
17.796,-0.34039
17.8,-0.32651
17.804,-0.32512
17.808,-0.33027
17.812,-0.33763
17.816,-0.33577
17.82,-0.32886
17.824,-0.34384
17.828,-0.34214
17.832,-0.33169
17.836,-0.33504
17.84,-0.33753
17.844,-0.34748
17.848,-0.3376
17.852,-0.3285
17.856,-0.3272
17.86,-0.33988
17.864,-0.33182
17.868,-0.31461
17.872,-0.31083
17.876,-0.32535
17.88,-0.32215
17.884,-0.30712
17.888,-0.30589
17.892,-0.30161
17.896,-0.31501
17.9,-0.28894
17.904,-0.28521
17.908,-0.28554
17.912,-0.27969
17.916,-0.25197
17.92,-0.25042
17.924,-0.249
17.928,-0.25198
17.932,-0.24006
17.936,-0.21693
17.94,-0.22519
17.944,-0.2284
17.948,-0.22968
17.952,-0.21777
17.956,-0.21561
17.96,-0.24398
17.964,-0.24057
17.968,-0.22856
17.972,-0.23781
17.976,-0.25542
17.98,-0.22987
17.984,-0.19605
17.988,-0.2154
17.992,-0.26862
17.996,-0.29238
18.0,-0.29707
18.004,-0.31862
18.008,-0.33202
18.012,-0.34584
18.016,-0.34268
18.02,-0.34188
18.024,-0.33708
18.028,-0.34468
18.032,-0.34666
18.036,-0.34081
18.04,-0.35269
18.044,-0.35548
18.048,-0.35259
18.052,-0.33969
18.056,-0.34345
18.06,-0.35874
18.064,-0.36016
18.068,-0.34963
18.072,-0.34518
18.076,-0.36396
18.08,-0.37501
18.084,-0.37021
18.088,-0.40577
18.092,-0.46769
18.096,-0.50004
18.1,-0.54807
18.104,-0.56973
18.108,-0.46474
18.112,-0.28284
18.116,-0.08574
18.12,0.21628
18.124,0.5802
18.128,0.81965
18.132,0.86342
18.136,0.60232
18.14,0.06292
18.144,-0.35551
18.148,-0.474
18.152,-0.43813
18.156,-0.38052
18.16,-0.38604
18.164,-0.38937
18.168,-0.36291
18.172,-0.36529
18.176,-0.36248
18.18,-0.36961
18.184,-0.36734
18.188,-0.36106
18.192,-0.37727
18.196,-0.37488
18.2,-0.36833
18.204,-0.37432
18.208,-0.38565
18.212,-0.39399
18.216,-0.38283
18.22,-0.37346
18.224,-0.38582
18.228,-0.40352
18.232,-0.38026
18.236,-0.36934
18.24,-0.36693
18.244,-0.3822
18.248,-0.38585
18.252,-0.36254
18.256,-0.38058
18.26,-0.39224
18.264,-0.38273
18.268,-0.3755
18.272,-0.3737
18.276,-0.38583
18.28,-0.3818
18.284,-0.36891
18.288,-0.38183
18.292,-0.38441
18.296,-0.39161
18.3,-0.38091
18.304,-0.38104
18.308,-0.39444
18.312,-0.39614
18.316,-0.37814
18.32,-0.36452
18.324,-0.37178
18.328,-0.37554
18.332,-0.37804
18.336,-0.36388
18.34,-0.36065
18.344,-0.37498
18.348,-0.37434
18.352,-0.3674
18.356,-0.36104
18.36,-0.38563
18.364,-0.38726
18.368,-0.38758
18.372,-0.38806
18.376,-0.39992
18.38,-0.39622
18.384,-0.38195
18.388,-0.38539
18.392,-0.39376
18.396,-0.40743
18.4,-0.39577
18.404,-0.38753
18.408,-0.40776
18.412,-0.40803
18.416,-0.38044
18.42,-0.38882
18.424,-0.38666
18.428,-0.39118
18.432,-0.36863
18.436,-0.35409
18.44,-0.34219
18.444,-0.34328
18.448,-0.32722
18.452,-0.31624
18.456,-0.29973
18.46,-0.31565
18.464,-0.29962
18.468,-0.27207
18.472,-0.27623
18.476,-0.27567
18.48,-0.28421
18.484,-0.27496
18.488,-0.27745
18.492,-0.29646
18.496,-0.30592
18.5,-0.30009
18.504,-0.28575
18.508,-0.29442
18.512,-0.30758
18.516,-0.29776
18.52,-0.29757
18.524,-0.30186
18.528,-0.31235
18.532,-0.30971
18.536,-0.30792
18.54,-0.31217
18.544,-0.31913
18.548,-0.30059
18.552,-0.28571
18.556,-0.29399
18.56,-0.30959
18.564,-0.3117
18.568,-0.31788
18.572,-0.31954
18.576,-0.33642
18.58,-0.32505
18.584,-0.31197
18.588,-0.3207
18.592,-0.33208
18.596,-0.34426
18.6,-0.33115
18.604,-0.32539
18.608,-0.32574
18.612,-0.32669
18.616,-0.32098
18.62,-0.31521
18.624,-0.32723
18.628,-0.33986
18.632,-0.31555
18.636,-0.31594
18.64,-0.32098
18.644,-0.33379
18.648,-0.33792
18.652,-0.32449
18.656,-0.31972
18.66,-0.34248
18.664,-0.33952
18.668,-0.32018
18.672,-0.32974
18.676,-0.34463
18.68,-0.33257
18.684,-0.33665
18.688,-0.31591
18.692,-0.3145
18.696,-0.32095
18.7,-0.32334
18.704,-0.31797
18.708,-0.32377
18.712,-0.33165
18.716,-0.31983
18.72,-0.30727
18.724,-0.30802
18.728,-0.30978
18.732,-0.29197
18.736,-0.27537
18.74,-0.269
18.744,-0.27716
18.748,-0.26302
18.752,-0.2501
18.756,-0.24654
18.76,-0.24875
18.764,-0.2247
18.768,-0.21629
18.772,-0.22153
18.776,-0.23156
18.78,-0.2388
18.784,-0.2391
18.788,-0.22286
18.792,-0.24734
18.796,-0.26238
18.8,-0.24805
18.804,-0.23278
18.808,-0.21547
18.812,-0.24775
18.816,-0.2696
18.82,-0.29379
18.824,-0.31942
18.828,-0.3433
18.832,-0.3504
18.836,-0.35909
18.84,-0.36176
18.844,-0.35679
18.848,-0.36187
18.852,-0.35338
18.856,-0.34455
18.86,-0.36881
18.864,-0.365
18.868,-0.34686
18.872,-0.33935
18.876,-0.34131
18.88,-0.36426
18.884,-0.34858
18.888,-0.34407
18.892,-0.35698
18.896,-0.3724
18.9,-0.36324
18.904,-0.36851
18.908,-0.41401
18.912,-0.45975
18.916,-0.46404
18.92,-0.47395
18.924,-0.53285
18.928,-0.58508
18.932,-0.50864
18.936,-0.34791
18.94,-0.14575
18.944,0.1505
18.948,0.52329
18.952,0.80536
18.956,0.86924
18.96,0.54536
18.964,-0.00874
18.968,-0.37023
18.972,-0.50079
18.976,-0.47901
18.98,-0.43455
18.984,-0.40553
18.988,-0.4127
18.992,-0.41043
18.996,-0.41197
19.0,-0.39838
19.004,-0.39044
19.008,-0.40356
19.012,-0.41193
19.016,-0.3985
19.02,-0.39214
19.024,-0.40067
19.028,-0.39718
19.032,-0.39311
19.036,-0.38314
19.04,-0.40195
19.044,-0.41808
19.048,-0.40803
19.052,-0.39261
19.056,-0.40842
19.06,-0.42212
19.064,-0.42321
19.068,-0.39983
19.072,-0.41903
19.076,-0.41627
19.08,-0.41143
19.084,-0.40268
19.088,-0.40532
19.092,-0.40877
19.096,-0.41351
19.1,-0.3994
19.104,-0.39727
19.108,-0.40307
19.112,-0.4098
19.116,-0.40874
19.12,-0.39995
19.124,-0.4088
19.128,-0.41886
19.132,-0.4083
19.136,-0.39328
19.14,-0.40701
19.144,-0.41931
19.148,-0.40794
19.152,-0.39429
19.156,-0.40421
19.16,-0.41305
19.164,-0.41388
19.168,-0.4114
19.172,-0.40636
19.176,-0.42962
19.18,-0.43522
19.184,-0.42582
19.188,-0.43188
19.192,-0.43564
19.196,-0.44577
19.2,-0.45043
19.204,-0.4546
19.208,-0.47401
19.212,-0.47737
19.216,-0.45748
19.22,-0.44779
19.224,-0.46271
19.228,-0.48161
19.232,-0.45097
19.236,-0.43513
19.24,-0.42553
19.244,-0.43226
19.248,-0.40566
19.252,-0.37068
19.256,-0.36927
19.26,-0.36038
19.264,-0.34884
19.268,-0.33385
19.272,-0.32876
19.276,-0.33431
19.28,-0.33447
19.284,-0.30998
19.288,-0.31284
19.292,-0.31662
19.296,-0.31831
19.3,-0.29749
19.304,-0.29546
19.308,-0.30713
19.312,-0.32865
19.316,-0.31859
19.32,-0.32166
19.324,-0.32572
19.328,-0.3358
19.332,-0.33256
19.336,-0.31198
19.34,-0.32395
19.344,-0.32637
19.348,-0.32024
19.352,-0.30535
19.356,-0.3158
19.36,-0.33003
19.364,-0.32367
19.368,-0.3328
19.372,-0.34045
19.376,-0.34249
19.38,-0.34054
19.384,-0.32747
19.388,-0.32376
19.392,-0.32622
19.396,-0.34257
19.4,-0.3345
19.404,-0.34482
19.408,-0.35502
19.412,-0.35792
19.416,-0.34368
19.42,-0.35034
19.424,-0.35757
19.428,-0.36776
19.432,-0.3583
19.436,-0.35403
19.44,-0.35508
19.444,-0.36697
19.448,-0.36027
19.452,-0.34723
19.456,-0.34565
19.46,-0.35102
19.464,-0.3442
19.468,-0.3316
19.472,-0.33742
19.476,-0.34835
19.48,-0.3465
19.484,-0.34373
19.488,-0.33852
19.492,-0.34858
19.496,-0.35697
19.5,-0.34168
19.504,-0.33949
19.508,-0.34703
19.512,-0.35234
19.516,-0.33658
19.52,-0.32519
19.524,-0.31066
19.528,-0.30337
19.532,-0.29422
19.536,-0.27573
19.54,-0.27007
19.544,-0.27105
19.548,-0.24283
19.552,-0.23495
19.556,-0.23009
19.56,-0.23992
19.564,-0.2439
19.568,-0.24453
19.572,-0.2537
19.576,-0.26105
19.58,-0.26794
19.584,-0.26442
19.588,-0.25982
19.592,-0.24675
19.596,-0.23046
19.6,-0.24759
19.604,-0.26747
19.608,-0.30443
19.612,-0.33779
19.616,-0.33032
19.62,-0.33571
19.624,-0.34799
19.628,-0.35986
19.632,-0.35924
19.636,-0.36533
19.64,-0.36054
19.644,-0.36061
19.648,-0.36192
19.652,-0.35816
19.656,-0.36014
19.66,-0.37763
19.664,-0.36344
19.668,-0.36494
19.672,-0.36437
19.676,-0.38304
19.68,-0.38917
19.684,-0.37822
19.688,-0.36756
19.692,-0.38437
19.696,-0.39633
19.7,-0.42754
19.704,-0.4709
19.708,-0.50552
19.712,-0.58246
19.716,-0.53959
19.72,-0.35559
19.724,-0.14476
19.728,0.1466
19.732,0.55274
19.736,0.85991
19.74,0.92129
19.744,0.6102
19.748,0.03485
19.752,-0.36201
19.756,-0.48874
19.76,-0.46623
19.764,-0.39031
19.768,-0.38434
19.772,-0.38819
19.776,-0.38941
19.78,-0.3933
19.784,-0.38372
19.788,-0.38939
19.792,-0.39334
19.796,-0.39014
19.8,-0.39203
19.804,-0.3807
19.808,-0.3915
19.812,-0.4032
19.816,-0.3966
19.82,-0.3889
19.824,-0.3922
19.828,-0.39592
19.832,-0.38086
19.836,-0.38632
19.84,-0.3857
19.844,-0.38959
19.848,-0.38094
19.852,-0.3644
19.856,-0.36829
19.86,-0.38639
19.864,-0.391
19.868,-0.37904
19.872,-0.37911
19.876,-0.3911
19.88,-0.39133
19.884,-0.37931
19.888,-0.38574
19.892,-0.39683
19.896,-0.38709
19.9,-0.38363
19.904,-0.37492
19.908,-0.39456
19.912,-0.39915
19.916,-0.3785
19.92,-0.37746
19.924,-0.37984
19.928,-0.38898
19.932,-0.38725
19.936,-0.35682
19.94,-0.36016
19.944,-0.38139
19.948,-0.37903
19.952,-0.38053
19.956,-0.38577
19.96,-0.39812
19.964,-0.39691
19.968,-0.38678
19.972,-0.39113
19.976,-0.40971
19.98,-0.409
19.984,-0.40357
19.988,-0.40822
19.992,-0.42563
19.996,-0.42605
20.0,-0.40639
20.004,-0.41067
20.008,-0.40949
20.012,-0.40888
20.016,-0.38676
20.02,-0.37322
20.024,-0.36631
20.028,-0.36225
20.032,-0.34628
20.036,-0.31618
20.04,-0.31364
20.044,-0.31076
20.048,-0.29679
20.052,-0.27517
20.056,-0.28457
20.06,-0.29039
20.064,-0.28259
20.068,-0.26352
20.072,-0.26591
20.076,-0.27613
20.08,-0.2777
20.084,-0.25237
20.088,-0.25216
20.092,-0.25997
20.096,-0.26279
20.1,-0.25632
20.104,-0.2425
20.108,-0.26061
20.112,-0.27285
20.116,-0.25841
20.12,-0.26733
20.124,-0.28678
20.128,-0.28089
20.132,-0.28528
20.136,-0.2719
20.14,-0.27496
20.144,-0.29125
20.148,-0.29102
20.152,-0.27608
20.156,-0.2778
20.16,-0.30161
20.164,-0.30249
20.168,-0.28237
20.172,-0.28854
20.176,-0.29164
20.18,-0.30835
20.184,-0.29556
20.188,-0.29223
20.192,-0.31116
20.196,-0.31054
20.2,-0.31281
20.204,-0.30547
20.208,-0.32036
20.212,-0.31966
20.216,-0.30615
20.22,-0.30726
20.224,-0.31119
20.228,-0.314
20.232,-0.30425
20.236,-0.30078
20.24,-0.30455
20.244,-0.32151
20.248,-0.29968
20.252,-0.29931
20.256,-0.30175
20.26,-0.31105
20.264,-0.31371
20.268,-0.29837
20.272,-0.29845
20.276,-0.31676
20.28,-0.32027
20.284,-0.30934
20.288,-0.29858
20.292,-0.31187
20.296,-0.31887
20.3,-0.30494
20.304,-0.29961
20.308,-0.30067
20.312,-0.29637
20.316,-0.26688
20.32,-0.24166
20.324,-0.24423
20.328,-0.24661
20.332,-0.24323
20.336,-0.23187
20.34,-0.22141
20.344,-0.23717
20.348,-0.22169
20.352,-0.19883
20.356,-0.1989
20.36,-0.21401
20.364,-0.20656
20.368,-0.2041
20.372,-0.21002
20.376,-0.22797
20.38,-0.22633
20.384,-0.21984
20.388,-0.21747
20.392,-0.19886
20.396,-0.18806
20.4,-0.20479
20.404,-0.23515
20.408,-0.27049
20.412,-0.30058
20.416,-0.31611
20.42,-0.32087
20.424,-0.3321
20.428,-0.33784
20.432,-0.34074
20.436,-0.33323
20.44,-0.33389
20.444,-0.34944
20.448,-0.34315
20.452,-0.33474
20.456,-0.33494
20.46,-0.34482
20.464,-0.33677
20.468,-0.32114
20.472,-0.32648
20.476,-0.3385
20.48,-0.35045
20.484,-0.40235
20.488,-0.4519
20.492,-0.50855
20.496,-0.56653
20.5,-0.55795
20.504,-0.3991
20.508,-0.24392
20.512,-0.09234
20.516,0.11944
20.52,0.39053
20.524,0.65083
20.528,0.82512
20.532,0.98981
20.536,1.05685
20.54,0.80272
20.544,0.1885
20.548,-0.31533
20.552,-0.4356
20.556,-0.3795
20.56,-0.35668
20.564,-0.36419
20.568,-0.35251
20.572,-0.35622
20.576,-0.37653
20.58,-0.38876
20.584,-0.37328
20.588,-0.36889
20.592,-0.38312
20.596,-0.39168
20.6,-0.37377
20.604,-0.36518
20.608,-0.38459
20.612,-0.39562
20.616,-0.38231
20.62,-0.37258
20.624,-0.37993
20.628,-0.39595
20.632,-0.37978
20.636,-0.35966
20.64,-0.36202
20.644,-0.36911
20.648,-0.36937
20.652,-0.35801
20.656,-0.35983
20.66,-0.37825
20.664,-0.37692
20.668,-0.36686
20.672,-0.3675
20.676,-0.38382
20.68,-0.38526
20.684,-0.37418
20.688,-0.3638
20.692,-0.37636
20.696,-0.38653
20.7,-0.37488
20.704,-0.3556
20.708,-0.36692
20.712,-0.37495
20.716,-0.36732
20.72,-0.35978
20.724,-0.36208
20.728,-0.38141
20.732,-0.38511
20.736,-0.36191
20.74,-0.36905
20.744,-0.37884
20.748,-0.37053
20.752,-0.3688
20.756,-0.36569
20.76,-0.39307
20.764,-0.38214
20.768,-0.36915
20.772,-0.37196
20.776,-0.38982
20.78,-0.37854
20.784,-0.36969
20.788,-0.36937
20.792,-0.37349
20.796,-0.38403
20.8,-0.38095
20.804,-0.36983
20.808,-0.37109
20.812,-0.37795
20.816,-0.35332
20.82,-0.33311
20.824,-0.33098
20.828,-0.32479
20.832,-0.29675
20.836,-0.29671
20.84,-0.29835
20.844,-0.30558
20.848,-0.28846
20.852,-0.2838
20.856,-0.2715
20.86,-0.27396
20.864,-0.273
20.868,-0.25799
20.872,-0.26259
20.876,-0.27057
20.88,-0.28914
20.884,-0.26854
20.888,-0.26252
20.892,-0.28381
20.896,-0.28725
20.9,-0.28024
20.904,-0.26684
20.908,-0.27674
20.912,-0.29969
20.916,-0.28663
20.92,-0.27998
20.924,-0.28716
20.928,-0.2975
20.932,-0.27848
20.936,-0.27266
20.94,-0.28568
20.944,-0.29995
20.948,-0.31303
20.952,-0.30701
20.956,-0.31147
20.96,-0.33794
20.964,-0.32199
20.968,-0.3143
20.972,-0.31809
20.976,-0.33081
20.98,-0.33069
20.984,-0.32443
20.988,-0.30978
20.992,-0.32482
20.996,-0.33338
21.0,-0.31617
21.004,-0.31008
21.008,-0.32859
21.012,-0.33906
21.016,-0.33557
21.02,-0.31125
21.024,-0.32556
21.028,-0.34074
21.032,-0.32625
21.036,-0.32026
21.04,-0.33042
21.044,-0.3333
21.048,-0.32252
21.052,-0.31589
21.056,-0.31891
21.06,-0.31392
21.064,-0.3094
21.068,-0.30856
21.072,-0.30037
21.076,-0.31208
21.08,-0.30085
21.084,-0.28767
21.088,-0.28162
21.092,-0.27265
21.096,-0.27524
21.1,-0.25286
21.104,-0.24232
21.108,-0.24153
21.112,-0.24616
21.116,-0.22889
21.12,-0.19893
21.124,-0.1919
21.128,-0.19358
21.132,-0.19749
21.136,-0.19888
21.14,-0.21354
21.144,-0.21694
21.148,-0.21249
21.152,-0.20156
21.156,-0.21265
21.16,-0.21672
21.164,-0.22227
21.168,-0.23114
21.172,-0.22425
21.176,-0.21306
21.18,-0.20053
21.184,-0.23657
21.188,-0.2569
21.192,-0.2854
21.196,-0.30945
21.2,-0.32728
21.204,-0.32873
21.208,-0.34133
21.212,-0.34028
21.216,-0.32175
21.22,-0.32025
21.224,-0.33146
21.228,-0.33599
21.232,-0.33246
21.236,-0.32901
21.24,-0.34103
21.244,-0.35536
21.248,-0.34803
21.252,-0.34245
21.256,-0.34867
21.26,-0.37832
21.264,-0.4044
21.268,-0.45138
21.272,-0.47895
21.276,-0.53589
21.28,-0.58358
21.284,-0.49662
21.288,-0.29728
21.292,-0.07808
21.296,0.25915
21.3,0.66293
21.304,0.8683
21.308,0.78741
21.312,0.33584
21.316,-0.17865
21.32,-0.44307
21.324,-0.48774
21.328,-0.42828
21.332,-0.39433
21.336,-0.4005
21.34,-0.398
21.344,-0.39159
21.348,-0.37135
21.352,-0.36789
21.356,-0.38617
21.36,-0.40188
21.364,-0.39284
21.368,-0.38715
21.372,-0.38132
21.376,-0.39857
21.38,-0.38659
21.384,-0.37636
21.388,-0.38048
21.392,-0.39811
21.396,-0.40222
21.4,-0.39694
21.404,-0.38742
21.408,-0.38923
21.412,-0.39307
21.416,-0.39816
21.42,-0.38953
21.424,-0.38673
21.428,-0.39925
21.432,-0.38354
21.436,-0.38048
21.44,-0.38339
21.444,-0.3815
21.448,-0.37275
21.452,-0.37233
21.456,-0.36905
21.46,-0.38259
21.464,-0.38267
21.468,-0.37918
21.472,-0.38376
21.476,-0.40211
21.48,-0.40143
21.484,-0.38409
21.488,-0.37584
21.492,-0.39529
21.496,-0.40632
21.5,-0.3967
21.504,-0.38395
21.508,-0.38506
21.512,-0.38934
21.516,-0.37112
21.52,-0.38422
21.524,-0.37767
21.528,-0.38464
21.532,-0.37974
21.536,-0.37965
21.54,-0.40377
21.544,-0.41056
21.548,-0.41415
21.552,-0.40552
21.556,-0.40726
21.56,-0.41428
21.564,-0.4142
21.568,-0.41641
21.572,-0.41307
21.576,-0.43512
21.58,-0.43524
21.584,-0.41848
21.588,-0.40577
21.592,-0.40766
21.596,-0.39633
21.6,-0.37063
21.604,-0.34874
21.608,-0.35222
21.612,-0.34797
21.616,-0.32923
21.62,-0.3063
21.624,-0.31924
21.628,-0.32486
21.632,-0.31306
21.636,-0.31292
21.64,-0.30571
21.644,-0.31354
21.648,-0.31746
21.652,-0.30582
21.656,-0.30429
21.66,-0.30839
21.664,-0.29738
21.668,-0.29291
21.672,-0.28406
21.676,-0.29247
21.68,-0.30731
21.684,-0.29241
21.688,-0.29255
21.692,-0.29771
21.696,-0.3054
21.7,-0.3013
21.704,-0.29824
21.708,-0.31562
21.712,-0.32225
21.716,-0.3239
21.72,-0.31295
21.724,-0.31653
21.728,-0.32152
21.732,-0.31584
21.736,-0.31455
21.74,-0.31142
21.744,-0.31351
21.748,-0.31606
21.752,-0.30851
21.756,-0.309
21.76,-0.32163
21.764,-0.32985
21.768,-0.32846
21.772,-0.32294
21.776,-0.33845
21.78,-0.35128
21.784,-0.32821
21.788,-0.32708
21.792,-0.3516
21.796,-0.35658
21.8,-0.33851
21.804,-0.32968
21.808,-0.33122
21.812,-0.35113
21.816,-0.34274
21.82,-0.32357
21.824,-0.32382
21.828,-0.34031
21.832,-0.34444
21.836,-0.3439
21.84,-0.33522
21.844,-0.33422
21.848,-0.33446
21.852,-0.31951
21.856,-0.33612
21.86,-0.35179
21.864,-0.33478
21.868,-0.31461
21.872,-0.30427
21.876,-0.29546
21.88,-0.28259
21.884,-0.26243
21.888,-0.26108
21.892,-0.25194
21.896,-0.24995
21.9,-0.22934
21.904,-0.21666
21.908,-0.23076
21.912,-0.24955
21.916,-0.25069
21.92,-0.23262
21.924,-0.23854
21.928,-0.24168
21.932,-0.23282
21.936,-0.23479
21.94,-0.25627
21.944,-0.27085
21.948,-0.26486
21.952,-0.23713
21.956,-0.22485
21.96,-0.25814
21.964,-0.28663
21.968,-0.29838
21.972,-0.32081
21.976,-0.36008
21.98,-0.36295
21.984,-0.36128
21.988,-0.35428
21.992,-0.36059
21.996,-0.3663
22.0,-0.35479
22.004,-0.34683
22.008,-0.37016
22.012,-0.38123
22.016,-0.35534
22.02,-0.34654
22.024,-0.35313
22.028,-0.3715
22.032,-0.36441
22.036,-0.34925
22.04,-0.36061
22.044,-0.3808
22.048,-0.39442
22.052,-0.42267
22.056,-0.45331
22.06,-0.49346
22.064,-0.55609
22.068,-0.54209
22.072,-0.42605
22.076,-0.2418
22.08,0.03672
22.084,0.42238
22.088,0.77665
22.092,0.92165
22.096,0.69137
22.1,0.16032
22.104,-0.29051
22.108,-0.48556
22.112,-0.5038
22.116,-0.43377
22.12,-0.40888
22.124,-0.41374
22.128,-0.41088
22.132,-0.40033
22.136,-0.39342
22.14,-0.40016
22.144,-0.40794
22.148,-0.40293
22.152,-0.39858
22.156,-0.40015
22.16,-0.41696
22.164,-0.41697
22.168,-0.40963
22.172,-0.40878
22.176,-0.43696
22.18,-0.44592
22.184,-0.42186
22.188,-0.4168
22.192,-0.42234
22.196,-0.42261
22.2,-0.42159
22.204,-0.41066
22.208,-0.43111
22.212,-0.44102
22.216,-0.42043
22.22,-0.41259
22.224,-0.40976
22.228,-0.41994
22.232,-0.4344
22.236,-0.42619
22.24,-0.4191
22.244,-0.42385
22.248,-0.42556
22.252,-0.42189
22.256,-0.42387
22.26,-0.42599
22.264,-0.41927
22.268,-0.41511
22.272,-0.41447
22.276,-0.42442
22.28,-0.42748
22.284,-0.41782
22.288,-0.41695
22.292,-0.42373
22.296,-0.42524
22.3,-0.41789
22.304,-0.40713
22.308,-0.41887
22.312,-0.44096
22.316,-0.42479
22.32,-0.41716
22.324,-0.43777
22.328,-0.44905
22.332,-0.44855
22.336,-0.44279
22.34,-0.45264
22.344,-0.4759
22.348,-0.48697
22.352,-0.47568
22.356,-0.48056
22.36,-0.48824
22.364,-0.48613
22.368,-0.46465
22.372,-0.45943
22.376,-0.46616
22.38,-0.46058
22.384,-0.44447
22.388,-0.43158
22.392,-0.42783
22.396,-0.41727
22.4,-0.39422
22.404,-0.37854
22.408,-0.37574
22.412,-0.37035
22.416,-0.34907
22.42,-0.33163
22.424,-0.33914
22.428,-0.34109
22.432,-0.33213
22.436,-0.32429
22.44,-0.32371
22.444,-0.33406
22.448,-0.32466
22.452,-0.31182
22.456,-0.30904
22.46,-0.32989
22.464,-0.32534
22.468,-0.31316
22.472,-0.31242
22.476,-0.3314
22.48,-0.32975
22.484,-0.3252
22.488,-0.33082
22.492,-0.34497
22.496,-0.35542
22.5,-0.33022
22.504,-0.32838
22.508,-0.33882
22.512,-0.35666
22.516,-0.34537
22.52,-0.35642
22.524,-0.35568
22.528,-0.36191
22.532,-0.35276
22.536,-0.35148
22.54,-0.34902
22.544,-0.3598
22.548,-0.35878
22.552,-0.35347
22.556,-0.35899
22.56,-0.37121
22.564,-0.36945
22.568,-0.37017
22.572,-0.37399
22.576,-0.38827
22.58,-0.38859
22.584,-0.37255
22.588,-0.37239
22.592,-0.37811
22.596,-0.38131
22.6,-0.37051
22.604,-0.3641
22.608,-0.37531
22.612,-0.37901
22.616,-0.36759
22.62,-0.3593
22.624,-0.36283
22.628,-0.37907
22.632,-0.37825
22.636,-0.35953
22.64,-0.36501
22.644,-0.38263
22.648,-0.3706
22.652,-0.36078
22.656,-0.3695
22.66,-0.38179
22.664,-0.36879
22.668,-0.36019
22.672,-0.35227
22.676,-0.36289
22.68,-0.35488
22.684,-0.34202
22.688,-0.32749
22.692,-0.32261
22.696,-0.32617
22.7,-0.30229
22.704,-0.29687
22.708,-0.30188
22.712,-0.293
22.716,-0.27449
22.72,-0.26466
22.724,-0.25899
22.728,-0.27291
22.732,-0.26977
22.736,-0.27041
22.74,-0.27651
22.744,-0.29341
22.748,-0.29377
22.752,-0.2755
22.756,-0.28507
22.76,-0.29704
22.764,-0.2802
22.768,-0.24586
22.772,-0.26177
22.776,-0.31895
22.78,-0.34271
22.784,-0.35042
22.788,-0.37298
22.792,-0.39411
22.796,-0.4035
22.8,-0.38721
22.804,-0.38304
22.808,-0.40127
22.812,-0.41009
22.816,-0.39522
22.82,-0.39523
22.824,-0.40725
22.828,-0.41566
22.832,-0.39873
22.836,-0.38984
22.84,-0.39474
22.844,-0.41538
22.848,-0.4102
22.852,-0.40054
22.856,-0.43853
22.86,-0.50871
22.864,-0.55258
22.868,-0.58018
22.872,-0.63832
22.876,-0.62601
22.88,-0.46678
22.884,-0.31373
22.888,-0.18439
22.892,0.00154
22.896,0.29394
22.9,0.66624
22.904,0.91225
22.908,0.92751
22.912,0.5179
22.916,-0.10683
22.92,-0.47703
22.924,-0.53096
22.928,-0.47172
22.932,-0.43865
22.936,-0.44317
22.94,-0.43821
22.944,-0.4489
22.948,-0.45587
22.952,-0.45249
22.956,-0.45429
22.96,-0.46717
22.964,-0.46431
22.968,-0.44422
22.972,-0.44531
22.976,-0.45202
22.98,-0.46001
22.984,-0.4414
22.988,-0.44583
22.992,-0.44967
22.996,-0.45507
23.0,-0.44776
23.004,-0.44455
23.008,-0.4532
23.012,-0.45473
23.016,-0.44863
23.02,-0.43825
23.024,-0.43399
23.028,-0.44952
23.032,-0.43619
23.036,-0.43841
23.04,-0.45051
23.044,-0.45464
23.048,-0.45457
23.052,-0.43426
23.056,-0.4463
23.06,-0.46004
23.064,-0.45211
23.068,-0.44238
23.072,-0.44105
23.076,-0.45661
23.08,-0.45663
23.084,-0.44976
23.088,-0.43672
23.092,-0.45738
23.096,-0.46574
23.1,-0.44914
23.104,-0.44596
23.108,-0.44049
23.112,-0.45102
23.116,-0.43699
23.12,-0.43786
23.124,-0.44191
23.128,-0.45522
23.132,-0.44367
23.136,-0.43779
23.14,-0.44784
23.144,-0.45121
23.148,-0.45027
23.152,-0.44271
23.156,-0.45894
23.16,-0.47103
23.164,-0.47667
23.168,-0.45993
23.172,-0.45452
23.176,-0.46781
23.18,-0.46968
23.184,-0.45493
23.188,-0.45797
23.192,-0.4525
23.196,-0.45154
23.2,-0.43088
23.204,-0.41306
23.208,-0.42268
23.212,-0.42045
23.216,-0.395
23.22,-0.3688
23.224,-0.37406
23.228,-0.37654
23.232,-0.35397
23.236,-0.34779
23.24,-0.33531
23.244,-0.35243
23.248,-0.35213
23.252,-0.33079
23.256,-0.34616
23.26,-0.34737
23.264,-0.34376
23.268,-0.32106
23.272,-0.32313
23.276,-0.34154
23.28,-0.33934
23.284,-0.33899
23.288,-0.33863
23.292,-0.35669
23.296,-0.36183
23.3,-0.33961
23.304,-0.34457
23.308,-0.36314
23.312,-0.36249
23.316,-0.3615
23.32,-0.35111
23.324,-0.35572
23.328,-0.37199
23.332,-0.3751
23.336,-0.35484
23.34,-0.36268
23.344,-0.37897
23.348,-0.37826
23.352,-0.35891
23.356,-0.37052
23.36,-0.3932
23.364,-0.3827
23.368,-0.38325
23.372,-0.38744
23.376,-0.39706
23.38,-0.39665
23.384,-0.39091
23.388,-0.39367
23.392,-0.40941
23.396,-0.41681
23.4,-0.40437
23.404,-0.3973
23.408,-0.41588
23.412,-0.41552
23.416,-0.41529
23.42,-0.40223
23.424,-0.4011
23.428,-0.41718
23.432,-0.41149
23.436,-0.39046
23.44,-0.39377
23.444,-0.41031
23.448,-0.40916
23.452,-0.39773
23.456,-0.40504
23.46,-0.41062
23.464,-0.41448
23.468,-0.41143
23.472,-0.39604
23.476,-0.40759
23.48,-0.40979
23.484,-0.3994
23.488,-0.3932
23.492,-0.39887
23.496,-0.39812
23.5,-0.37152
23.504,-0.36017
23.508,-0.35415
23.512,-0.35428
23.516,-0.34285
23.52,-0.32745
23.524,-0.33294
23.528,-0.34747
23.532,-0.33555
23.536,-0.30288
23.54,-0.30511
23.544,-0.31255
23.548,-0.30845
23.552,-0.30249
23.556,-0.30438
23.56,-0.32924
23.564,-0.31835
23.568,-0.29516
23.572,-0.30804
23.576,-0.32613
23.58,-0.30357
23.584,-0.28129
23.588,-0.31768
23.592,-0.36837
23.596,-0.38907
23.6,-0.39359
23.604,-0.40028
23.608,-0.42202
23.612,-0.43642
23.616,-0.42362
23.62,-0.41092
23.624,-0.42252
23.628,-0.43472
23.632,-0.43037
23.636,-0.42044
23.64,-0.42751
23.644,-0.44521
23.648,-0.42955
23.652,-0.42742
23.656,-0.42823
23.66,-0.4372
23.664,-0.4474
23.668,-0.44269
23.672,-0.43569
23.676,-0.46544
23.68,-0.50319
23.684,-0.55237
23.688,-0.57358
23.692,-0.63858
23.696,-0.65662
23.7,-0.5108
23.704,-0.28569
23.708,-0.0488
23.712,0.33825
23.716,0.71622
23.72,0.84806
23.724,0.66389
23.728,0.08662
23.732,-0.43293
23.736,-0.58338
23.74,-0.54441
23.744,-0.49869
23.748,-0.47328
23.752,-0.47116
23.756,-0.46465
23.76,-0.48578
23.764,-0.48294
23.768,-0.46699
23.772,-0.47213
23.776,-0.48504
23.78,-0.48718
23.784,-0.47255
23.788,-0.47299
23.792,-0.48968
23.796,-0.49675
23.8,-0.4915
23.804,-0.48388
23.808,-0.48884
23.812,-0.49228
23.816,-0.4872
23.82,-0.47746
23.824,-0.48047
23.828,-0.49053
23.832,-0.48094
23.836,-0.47817
23.84,-0.48287
23.844,-0.50332
23.848,-0.49508
23.852,-0.48632
23.856,-0.47363
23.86,-0.48643
23.864,-0.48039
23.868,-0.47215
23.872,-0.47537
23.876,-0.49362
23.88,-0.49692
23.884,-0.48313
23.888,-0.47607
23.892,-0.50027
23.896,-0.49866
23.9,-0.49168
23.904,-0.48431
23.908,-0.48786
23.912,-0.49969
23.916,-0.49039
23.92,-0.47561
23.924,-0.48748
23.928,-0.49515
23.932,-0.48146
23.936,-0.47865
23.94,-0.47903
23.944,-0.48016
23.948,-0.4685
23.952,-0.46164
23.956,-0.47337
23.96,-0.47793
23.964,-0.48845
23.968,-0.47431
23.972,-0.47748
23.976,-0.50064
23.98,-0.50434
23.984,-0.48557
23.988,-0.48479
23.992,-0.49555
23.996,-0.50776
24.0,-0.48956
24.004,-0.49116
24.008,-0.49642
24.012,-0.49225
24.016,-0.47111
24.02,-0.44666
24.024,-0.45138
24.028,-0.44595
24.032,-0.4149
24.036,-0.38591
24.04,-0.38919
24.044,-0.39257
24.048,-0.38158
24.052,-0.37044
24.056,-0.37686
24.06,-0.38815
24.064,-0.39113
24.068,-0.3766
24.072,-0.37105
24.076,-0.3892
24.08,-0.38394
24.084,-0.38362
24.088,-0.37187
24.092,-0.38464
24.096,-0.37985
24.1,-0.37373
24.104,-0.36742
24.108,-0.37525
24.112,-0.38838
24.116,-0.36809
24.12,-0.36524
24.124,-0.37389
24.128,-0.39148
24.132,-0.39119
24.136,-0.38146
24.14,-0.39591
24.144,-0.41348
24.148,-0.4153
24.152,-0.39866
24.156,-0.39723
24.16,-0.41652
24.164,-0.41452
24.168,-0.40628
24.172,-0.41462
24.176,-0.42866
24.18,-0.43024
24.184,-0.42119
24.188,-0.40766
24.192,-0.41358
24.196,-0.42693
24.2,-0.41095
24.204,-0.41392
24.208,-0.42249
24.212,-0.44744
24.216,-0.44086
24.22,-0.42734
24.224,-0.43715
24.228,-0.44823
24.232,-0.44364
24.236,-0.42261
24.24,-0.42222
24.244,-0.44276
24.248,-0.44353
24.252,-0.42609
24.256,-0.42916
24.26,-0.44982
24.264,-0.44472
24.268,-0.42939
24.272,-0.42162
24.276,-0.42963
24.28,-0.4309
24.284,-0.41501
24.288,-0.40924
24.292,-0.42262
24.296,-0.42431
24.3,-0.42244
24.304,-0.42227
24.308,-0.42392
24.312,-0.44228
24.316,-0.42894
24.32,-0.41962
24.324,-0.41792
24.328,-0.41989
24.332,-0.38958
24.336,-0.36634
24.34,-0.37065
24.344,-0.36589
24.348,-0.35248
24.352,-0.33485
24.356,-0.3181
24.36,-0.32685
24.364,-0.32449
24.368,-0.31408
24.372,-0.31542
24.376,-0.33021
24.38,-0.34536
24.384,-0.33193
24.388,-0.3283
24.392,-0.36141
24.396,-0.37284
24.4,-0.33951
24.404,-0.29859
24.408,-0.30888
24.412,-0.34714
24.416,-0.37079
24.42,-0.37517
24.424,-0.39802
24.428,-0.42839
24.432,-0.43063
24.436,-0.42938
24.44,-0.44083
24.444,-0.45894
24.448,-0.46024
24.452,-0.45726
24.456,-0.44864
24.46,-0.45807
24.464,-0.47199
24.468,-0.46414
24.472,-0.47041
24.476,-0.48597
24.48,-0.48313
24.484,-0.46298
24.488,-0.47463
24.492,-0.48735
24.496,-0.49675
24.5,-0.48872
24.504,-0.5032
24.508,-0.55548
24.512,-0.60414
24.516,-0.61717
24.52,-0.66102
24.524,-0.67269
24.528,-0.56298
24.532,-0.37748
24.536,-0.13771
24.54,0.23625
24.544,0.5754
24.548,0.73672
24.552,0.60286
24.556,0.12063
24.56,-0.36852
24.564,-0.59096
24.568,-0.60491
24.572,-0.54872
24.576,-0.53347
24.58,-0.53715
24.584,-0.51831
24.588,-0.50959
24.592,-0.50992
24.596,-0.51573
24.6,-0.49489
24.604,-0.49546
24.608,-0.49716
24.612,-0.51454
24.616,-0.51556
24.62,-0.50731
24.624,-0.5033
24.628,-0.51591
24.632,-0.5073
24.636,-0.50591
24.64,-0.52121
24.644,-0.52728
24.648,-0.52982
24.652,-0.52688
24.656,-0.52049
24.66,-0.52655
24.664,-0.52242
24.668,-0.51537
24.672,-0.51073
24.676,-0.51843
24.68,-0.53186
24.684,-0.517
24.688,-0.50607
24.692,-0.52392
24.696,-0.52972
24.7,-0.50894
24.704,-0.49535
24.708,-0.50963
24.712,-0.52008
24.716,-0.51741
24.72,-0.50204
24.724,-0.50674
24.728,-0.51624
24.732,-0.5084
24.736,-0.51484
24.74,-0.51369
24.744,-0.50257
24.748,-0.52103
24.752,-0.50956
24.756,-0.49179
24.76,-0.50187
24.764,-0.49719
24.768,-0.48189
24.772,-0.48419
24.776,-0.50348
24.78,-0.50624
24.784,-0.50044
24.788,-0.49867
24.792,-0.5083
24.796,-0.50958
24.8,-0.50595
24.804,-0.51293
24.808,-0.52069
24.812,-0.53746
24.816,-0.53502
24.82,-0.52801
24.824,-0.54051
24.828,-0.5568
24.832,-0.54471
24.836,-0.54266
24.84,-0.54133
24.844,-0.55135
24.848,-0.54725
24.852,-0.52192
24.856,-0.51147
24.86,-0.50129
24.864,-0.50487
24.868,-0.47356
24.872,-0.46644
24.876,-0.46125
24.88,-0.45527
24.884,-0.43445
24.888,-0.42593
24.892,-0.43103
24.896,-0.44212
24.9,-0.43188
24.904,-0.40801
24.908,-0.41554
24.912,-0.41688
24.916,-0.40279
24.92,-0.39226
24.924,-0.39802
24.928,-0.41182
24.932,-0.39591
24.936,-0.39696
24.94,-0.41014
24.944,-0.41596
24.948,-0.41328
24.952,-0.4045
24.956,-0.40596
24.96,-0.42109
24.964,-0.413
24.968,-0.39754
24.972,-0.40476
24.976,-0.41497
24.98,-0.42516
24.984,-0.40659
24.988,-0.40218
24.992,-0.41976
24.996,-0.41778
25.0,-0.40963
25.004,-0.41377
25.008,-0.42628
25.012,-0.43883
25.016,-0.43062
25.02,-0.43049
25.024,-0.42894
25.028,-0.44555
25.032,-0.44405
25.036,-0.42382
25.04,-0.42184
25.044,-0.43036
25.048,-0.45466
25.052,-0.442
25.056,-0.43238
25.06,-0.44144
25.064,-0.43803
25.068,-0.42617
25.072,-0.41356
25.076,-0.43526
25.08,-0.45531
25.084,-0.44951
25.088,-0.43745
25.092,-0.43769
25.096,-0.4514
25.1,-0.44476
25.104,-0.42417
25.108,-0.44661
25.112,-0.45586
25.116,-0.44048
25.12,-0.42217
25.124,-0.43459
25.128,-0.4499
25.132,-0.42877
25.136,-0.41239
25.14,-0.42745
25.144,-0.44591
25.148,-0.43288
25.152,-0.42936
25.156,-0.42707
25.16,-0.42746
25.164,-0.41291
25.168,-0.39793
25.172,-0.36192
25.176,-0.38369
25.18,-0.39507
25.184,-0.36522
25.188,-0.34986
25.192,-0.36366
25.196,-0.37798
25.2,-0.35224
25.204,-0.32631
25.208,-0.32616
25.212,-0.32631
25.216,-0.31899
25.22,-0.31553
25.224,-0.33134
25.228,-0.35577
25.232,-0.34332
25.236,-0.34155
25.24,-0.3639
25.244,-0.38164
25.248,-0.36414
25.252,-0.32336
25.256,-0.34595
25.26,-0.38788
25.264,-0.40905
25.268,-0.42067
25.272,-0.43503
25.276,-0.45626
25.28,-0.45163
25.284,-0.44676
25.288,-0.43949
25.292,-0.4529
25.296,-0.46296
25.3,-0.46118
25.304,-0.45302
25.308,-0.46481
25.312,-0.47684
25.316,-0.45461
25.32,-0.45989
25.324,-0.4701
25.328,-0.47681
25.332,-0.47961
25.336,-0.47158
25.34,-0.46936
25.344,-0.48544
25.348,-0.48658
25.352,-0.51469
25.356,-0.54827
25.36,-0.58311
25.364,-0.63866
25.368,-0.66083
25.372,-0.54561
25.376,-0.37154
25.38,-0.12621
25.384,0.23161
25.388,0.60375
25.392,0.81835
25.396,0.75816
25.4,0.34347
25.404,-0.19096
25.408,-0.51383
25.412,-0.61809
25.416,-0.60191
25.42,-0.53799
25.424,-0.51303
25.428,-0.52586
25.432,-0.50817
25.436,-0.49429
25.44,-0.49913
25.444,-0.50758
25.448,-0.49997
25.452,-0.49879
25.456,-0.49814
25.46,-0.51191
25.464,-0.50785
25.468,-0.49185
25.472,-0.50145
25.476,-0.51084
25.48,-0.51438
25.484,-0.49126
25.488,-0.49081
25.492,-0.50952
25.496,-0.52
25.5,-0.50092
25.504,-0.49957
25.508,-0.50674
25.512,-0.50234
25.516,-0.49461
25.52,-0.482
25.524,-0.48833
25.528,-0.49759
25.532,-0.49667
25.536,-0.48432
25.54,-0.50015
25.544,-0.50616
25.548,-0.50739
25.552,-0.49246
25.556,-0.49057
25.56,-0.5077
25.564,-0.51137
25.568,-0.49365
25.572,-0.49393
25.576,-0.51428
25.58,-0.50421
25.584,-0.49727
25.588,-0.48667
25.592,-0.49445
25.596,-0.50468
25.6,-0.48311
25.604,-0.48031
25.608,-0.49037
25.612,-0.51687
25.616,-0.51184
25.62,-0.50783
25.624,-0.51742
25.628,-0.54051
25.632,-0.52934
25.636,-0.52692
25.64,-0.53705
25.644,-0.55232
25.648,-0.55086
25.652,-0.53891
25.656,-0.54308
25.66,-0.54572
25.664,-0.54103
25.668,-0.52851
25.672,-0.52716
25.676,-0.52301
25.68,-0.51275
25.684,-0.49136
25.688,-0.46968
25.692,-0.46777
25.696,-0.46134
25.7,-0.43772
25.704,-0.41302
25.708,-0.41383
25.712,-0.40157
25.716,-0.38871
25.72,-0.37976
25.724,-0.38606
25.728,-0.39366
25.732,-0.38224
25.736,-0.36789
25.74,-0.37897
25.744,-0.38009
25.748,-0.37532
25.752,-0.36687
25.756,-0.36956
25.76,-0.39277
25.764,-0.39693
25.768,-0.38591
25.772,-0.3929
25.776,-0.40408
25.78,-0.41147
25.784,-0.39626
25.788,-0.39229
25.792,-0.39714
25.796,-0.4071
25.8,-0.39331
25.804,-0.39077
25.808,-0.40885
25.812,-0.41136
25.816,-0.40174
25.82,-0.38813
25.824,-0.39508
25.828,-0.40141
25.832,-0.3981
25.836,-0.38552
25.84,-0.41032
25.844,-0.41895
25.848,-0.41387
25.852,-0.40891
25.856,-0.40786
25.86,-0.42966
25.864,-0.43216
25.868,-0.42557
25.872,-0.41122
25.876,-0.4313
25.88,-0.44318
25.884,-0.41634
25.888,-0.41573
25.892,-0.42789
25.896,-0.43658
25.9,-0.40965
25.904,-0.41834
25.908,-0.4141
25.912,-0.41463
25.916,-0.39986
25.92,-0.3905
25.924,-0.39221
25.928,-0.40905
25.932,-0.3998
25.936,-0.39363
25.94,-0.39842
25.944,-0.41731
25.948,-0.41756
25.952,-0.39486
25.956,-0.39553
25.96,-0.41352
25.964,-0.41624
25.968,-0.39991
25.972,-0.38899
25.976,-0.40009
25.98,-0.39206
25.984,-0.37714
25.988,-0.35365
25.992,-0.34581
25.996,-0.33626
26.0,-0.31699
26.004,-0.3007
26.008,-0.31702
26.012,-0.3195
26.016,-0.29086
26.02,-0.2749
26.024,-0.28596
26.028,-0.29763
26.032,-0.3027
26.036,-0.30034
26.04,-0.31206
26.044,-0.3219
26.048,-0.3046
26.052,-0.31178
26.056,-0.31453
26.06,-0.30773
26.064,-0.27611
26.068,-0.2522
26.072,-0.29164
26.076,-0.33204
26.08,-0.34729
26.084,-0.35291
26.088,-0.36851
26.092,-0.38649
26.096,-0.40465
26.1,-0.3999
26.104,-0.39568
26.108,-0.41573
26.112,-0.42305
26.116,-0.41738
26.12,-0.41573
26.124,-0.41723
26.128,-0.42947
26.132,-0.41992
26.136,-0.40582
26.14,-0.40742
26.144,-0.43079
26.148,-0.42045
26.152,-0.42411
26.156,-0.45622
26.16,-0.52118
26.164,-0.55505
26.168,-0.58033
26.172,-0.60714
26.176,-0.51533
26.18,-0.29108
26.184,-0.02738
26.188,0.35338
26.192,0.73084
26.196,0.96011
26.2,1.04806
26.204,0.8928
26.208,0.40556
26.212,-0.19592
26.216,-0.53062
26.22,-0.55712
26.224,-0.51254
26.228,-0.45811
26.232,-0.45079
26.236,-0.44262
26.24,-0.44629
26.244,-0.46436
26.248,-0.46551
26.252,-0.46477
26.256,-0.46755
26.26,-0.48532
26.264,-0.47804
26.268,-0.4706
26.272,-0.46118
26.276,-0.4646
26.28,-0.47807
26.284,-0.46446
26.288,-0.45412
26.292,-0.45989
26.296,-0.46003
26.3,-0.45571
26.304,-0.4482
26.308,-0.45664
26.312,-0.47186
26.316,-0.46312
26.32,-0.4515
26.324,-0.45139
26.328,-0.47849
26.332,-0.4575
26.336,-0.43426
26.34,-0.44432
26.344,-0.45819
26.348,-0.45765
26.352,-0.43188
26.356,-0.43015
26.36,-0.45798
26.364,-0.45558
26.368,-0.44508
26.372,-0.44154
26.376,-0.44469
26.38,-0.44775
26.384,-0.43683
26.388,-0.44347
26.392,-0.45341
26.396,-0.45334
26.4,-0.46084
26.404,-0.44013
26.408,-0.45751
26.412,-0.46355
26.416,-0.43666
26.42,-0.43073
26.424,-0.44356
26.428,-0.46539
26.432,-0.46235
26.436,-0.4556
26.44,-0.45593
26.444,-0.46863
26.448,-0.46781
26.452,-0.45269
26.456,-0.45397
26.46,-0.46948
26.464,-0.46393
26.468,-0.45458
26.472,-0.44836
26.476,-0.4464
26.48,-0.437
26.484,-0.42434
26.488,-0.41505
26.492,-0.40072
26.496,-0.39469
26.5,-0.38154
26.504,-0.36569
26.508,-0.35902
26.512,-0.35891
26.516,-0.35368
26.52,-0.33573
26.524,-0.33986
26.528,-0.34268
26.532,-0.32561
26.536,-0.32008
26.54,-0.32471
26.544,-0.33204
26.548,-0.3296
26.552,-0.32344
26.556,-0.33769
26.56,-0.35693
26.564,-0.36293
26.568,-0.33793
26.572,-0.3464
26.576,-0.35231
26.58,-0.35892
26.584,-0.34157
26.588,-0.32765
26.592,-0.34653
26.596,-0.3563
26.6,-0.34241
26.604,-0.34651
26.608,-0.3582
26.612,-0.37344
26.616,-0.36552
26.62,-0.36177
26.624,-0.36283
26.628,-0.37872
26.632,-0.36998
26.636,-0.36363
26.64,-0.36831
26.644,-0.38734
26.648,-0.38283
26.652,-0.37049
26.656,-0.37023
26.66,-0.38342
26.664,-0.38366
26.668,-0.3559
26.672,-0.35421
26.676,-0.37889
26.68,-0.37828
26.684,-0.37328
26.688,-0.36883
26.692,-0.39534
26.696,-0.39338
26.7,-0.38513
26.704,-0.38305
26.708,-0.38272
26.712,-0.39337
26.716,-0.38615
26.72,-0.37451
26.724,-0.37851
26.728,-0.38736
26.732,-0.37791
26.736,-0.37234
26.74,-0.36795
26.744,-0.36845
26.748,-0.35805
26.752,-0.35293
26.756,-0.33837
26.76,-0.35207
26.764,-0.33914
26.768,-0.3074
26.772,-0.29223
26.776,-0.31145
26.78,-0.30444
26.784,-0.28314
26.788,-0.28733
26.792,-0.27979
26.796,-0.2734
26.8,-0.26053
26.804,-0.24488
26.808,-0.25905
26.812,-0.27368
26.816,-0.28051
26.82,-0.2654
26.824,-0.26453
26.828,-0.27422
26.832,-0.26278
26.836,-0.24082
26.84,-0.22959
26.844,-0.27076
26.848,-0.30835
26.852,-0.31339
26.856,-0.33405
26.86,-0.36299
26.864,-0.37367
26.868,-0.36661
26.872,-0.37033
26.876,-0.37316
26.88,-0.3846
26.884,-0.37875
26.888,-0.36118
26.892,-0.37329
26.896,-0.3808
26.9,-0.37419
26.904,-0.38032
26.908,-0.39055
26.912,-0.40265
26.916,-0.39201
26.92,-0.39006
26.924,-0.39204
26.928,-0.41604
26.932,-0.42896
26.936,-0.47085
26.94,-0.51067
26.944,-0.55985
26.948,-0.61141
26.952,-0.53288
26.956,-0.34014
26.96,-0.13447
26.964,0.21403
26.968,0.62352
26.972,0.84908
26.976,0.78434
26.98,0.31189
26.984,-0.23605
26.988,-0.50325
26.992,-0.51206
26.996,-0.44694
27.0,-0.41707
27.004,-0.41299
27.008,-0.40608
27.012,-0.41803
27.016,-0.41622
27.02,-0.40407
27.024,-0.41963
27.028,-0.42762
27.032,-0.41307
27.036,-0.40463
27.04,-0.40689
27.044,-0.4253
27.048,-0.42432
27.052,-0.41214
27.056,-0.40865
27.06,-0.43065
27.064,-0.43108
27.068,-0.41979
27.072,-0.41739
27.076,-0.43045
27.08,-0.4289
27.084,-0.41622
27.088,-0.40918
27.092,-0.42058
27.096,-0.42174
27.1,-0.40293
27.104,-0.40381
27.108,-0.40005
27.112,-0.41584
27.116,-0.40854
27.12,-0.40005
27.124,-0.4142
27.128,-0.42582
27.132,-0.42159
27.136,-0.41215
27.14,-0.4137
27.144,-0.42913
27.148,-0.42032
27.152,-0.40839
27.156,-0.40151
27.16,-0.41089
27.164,-0.41841
27.168,-0.40141
27.172,-0.39355
27.176,-0.39885
27.18,-0.40392
27.184,-0.39349
27.188,-0.39667
27.192,-0.40926
27.196,-0.43099
27.2,-0.42206
27.204,-0.40844
27.208,-0.42015
27.212,-0.43631
27.216,-0.42344
27.22,-0.41952
27.224,-0.42431
27.228,-0.43955
27.232,-0.42475
27.236,-0.41365
27.24,-0.42841
27.244,-0.43255
27.248,-0.40699
27.252,-0.38621
27.256,-0.37649
27.26,-0.38304
27.264,-0.38044
27.268,-0.35416
27.272,-0.34391
27.276,-0.36442
27.28,-0.35129
27.284,-0.33447
27.288,-0.3234
27.292,-0.3324
27.296,-0.33862
27.3,-0.32439
27.304,-0.30593
27.308,-0.31093
27.312,-0.33439
27.316,-0.32264
27.32,-0.31306
27.324,-0.31033
27.328,-0.31222
27.332,-0.30512
27.336,-0.29682
27.34,-0.30447
27.344,-0.32845
27.348,-0.32684
27.352,-0.30573
27.356,-0.32697
27.36,-0.33482
27.364,-0.34068
27.368,-0.32571
27.372,-0.33654
27.376,-0.35482
27.38,-0.35476
27.384,-0.35062
27.388,-0.33298
27.392,-0.34949
27.396,-0.35537
27.4,-0.34836
27.404,-0.34437
27.408,-0.35353
27.412,-0.36436
27.416,-0.35845
27.42,-0.35682
27.424,-0.36496
27.428,-0.37838
27.432,-0.38056
27.436,-0.37014
27.44,-0.38334
27.444,-0.38416
27.448,-0.38128
27.452,-0.373
27.456,-0.37046
27.46,-0.37386
27.464,-0.3668
27.468,-0.36061
27.472,-0.35648
27.476,-0.3885
27.48,-0.39866
27.484,-0.38615
27.488,-0.37916
27.492,-0.38973
27.496,-0.37665
27.5,-0.37181
27.504,-0.36291
27.508,-0.36359
27.512,-0.38216
27.516,-0.37218
27.52,-0.37553
27.524,-0.38534
27.528,-0.39747
27.532,-0.37224
27.536,-0.34712
27.54,-0.36805
27.544,-0.38186
27.548,-0.38159
27.552,-0.35767
27.556,-0.35285
27.56,-0.35623
27.564,-0.34489
27.568,-0.32143
27.572,-0.31194
27.576,-0.3226
27.58,-0.30331
27.584,-0.27967
27.588,-0.25712
27.592,-0.2673
27.596,-0.26531
27.6,-0.25645
27.604,-0.25711
27.608,-0.27678
27.612,-0.28435
27.616,-0.27368
27.62,-0.28654
27.624,-0.30039
27.628,-0.28655
27.632,-0.27074
27.636,-0.29139
27.64,-0.32503
27.644,-0.36156
27.648,-0.37717
27.652,-0.38868
27.656,-0.39533
27.66,-0.4166
27.664,-0.40306
27.668,-0.39723
27.672,-0.40351
27.676,-0.40208
27.68,-0.40763
27.684,-0.3926
27.688,-0.39456
27.692,-0.41598
27.696,-0.43266
27.7,-0.4158
27.704,-0.40757
27.708,-0.40712
27.712,-0.4149
27.716,-0.41436
27.72,-0.41406
27.724,-0.44374
27.728,-0.49914
27.732,-0.51584
27.736,-0.52495
27.74,-0.58664
27.744,-0.65082
27.748,-0.62525
27.752,-0.50238
27.756,-0.34316
27.76,-0.12904
27.764,0.25178
27.768,0.62117
27.772,0.79542
27.776,0.63834
27.78,0.13764
27.784,-0.30667
27.788,-0.51702
27.792,-0.54485
27.796,-0.49113
27.8,-0.45403
27.804,-0.4467
27.808,-0.44324
27.812,-0.45321
27.816,-0.44984
27.82,-0.44068
27.824,-0.44229
27.828,-0.4515
27.832,-0.45123
27.836,-0.43404
27.84,-0.43368
27.844,-0.45065
27.848,-0.44731
27.852,-0.43929
27.856,-0.44173
27.86,-0.46154
27.864,-0.45718
27.868,-0.45993
27.872,-0.44354
27.876,-0.48002
27.88,-0.46994
27.884,-0.46044
27.888,-0.45267
27.892,-0.45418
27.896,-0.46706
27.9,-0.45261
27.904,-0.43631
27.908,-0.44399
27.912,-0.44502
27.916,-0.43661
27.92,-0.44574
27.924,-0.44738
27.928,-0.44975
27.932,-0.43576
27.936,-0.4396
27.94,-0.44804
27.944,-0.47021
27.948,-0.45903
27.952,-0.43908
27.956,-0.43877
27.96,-0.45247
27.964,-0.4487
27.968,-0.43333
27.972,-0.44633
27.976,-0.45508
27.98,-0.45675
27.984,-0.43765
27.988,-0.42497
27.992,-0.43865
27.996,-0.46582
28.0,-0.44734
28.004,-0.43758
28.008,-0.46273
28.012,-0.48682
28.016,-0.4825
28.02,-0.47672
28.024,-0.48938
28.028,-0.49353
28.032,-0.48967
28.036,-0.49096
28.04,-0.4945
28.044,-0.50478
28.048,-0.4974
28.052,-0.48296
28.056,-0.46912
28.06,-0.47221
28.064,-0.46265
28.068,-0.41847
28.072,-0.4034
28.076,-0.39867
28.08,-0.40007
28.084,-0.36297
28.088,-0.36138
28.092,-0.36908
28.096,-0.37604
28.1,-0.37059
28.104,-0.35428
28.108,-0.36999
28.112,-0.36575
28.116,-0.34291
28.12,-0.32458
28.124,-0.33205
28.128,-0.35098
28.132,-0.35195
28.136,-0.34516
28.14,-0.35496
28.144,-0.36269
28.148,-0.36903
28.152,-0.36693
28.156,-0.37208
28.16,-0.37537
28.164,-0.36582
28.168,-0.3573
28.172,-0.35365
28.176,-0.36156
28.18,-0.38267
28.184,-0.37796
28.188,-0.36359
28.192,-0.37504
28.196,-0.38369
28.2,-0.38301
28.204,-0.37176
28.208,-0.39814
28.212,-0.40835
28.216,-0.38812
28.22,-0.37531
28.224,-0.38652
28.228,-0.40712
28.232,-0.3971
28.236,-0.391
28.24,-0.38895
28.244,-0.39785
28.248,-0.39833
28.252,-0.38455
28.256,-0.39185
28.26,-0.39429
28.264,-0.40096
28.268,-0.3927
28.272,-0.38765
28.276,-0.40262
28.28,-0.39146
28.284,-0.37833
28.288,-0.36652
28.292,-0.38684
28.296,-0.39899
28.3,-0.38635
28.304,-0.38017
28.308,-0.38118
28.312,-0.38679
28.316,-0.37857
28.32,-0.37634
28.324,-0.386
28.328,-0.40806
28.332,-0.40128
28.336,-0.3905
28.34,-0.39409
28.344,-0.40595
28.348,-0.38187
28.352,-0.34718
28.356,-0.32021
28.36,-0.33857
28.364,-0.33601
28.368,-0.32157
28.372,-0.31884
28.376,-0.31027
28.38,-0.30331
28.384,-0.28633
28.388,-0.28143
28.392,-0.29801
28.396,-0.30046
28.4,-0.28892
28.404,-0.28585
28.408,-0.30013
28.412,-0.31317
28.416,-0.30982
28.42,-0.28681
28.424,-0.27558
28.428,-0.30113
28.432,-0.33137
28.436,-0.34333
28.44,-0.37981
28.444,-0.41427
28.448,-0.42047
28.452,-0.4184
28.456,-0.41155
28.46,-0.42354
28.464,-0.42692
28.468,-0.42383
28.472,-0.40935
28.476,-0.43163
28.48,-0.44433
28.484,-0.43244
28.488,-0.41077
28.492,-0.42294
28.496,-0.43172
28.5,-0.42121
28.504,-0.41753
28.508,-0.42733
28.512,-0.44055
28.516,-0.46375
28.52,-0.49855
28.524,-0.53017
28.528,-0.55873
28.532,-0.60496
28.536,-0.61913
28.54,-0.51475
28.544,-0.34411
28.548,-0.12478
28.552,0.1969
28.556,0.57362
28.56,0.81695
28.564,0.85117
28.568,0.52903
28.572,-0.05577
28.576,-0.45329
28.58,-0.55165
28.584,-0.52264
28.588,-0.46337
28.592,-0.45568
28.596,-0.46767
28.6,-0.45048
28.604,-0.44256
28.608,-0.45241
28.612,-0.45438
28.616,-0.44393
28.62,-0.43867
28.624,-0.44379
28.628,-0.46381
28.632,-0.46286
28.636,-0.45281
28.64,-0.46667
28.644,-0.48311
28.648,-0.47323
28.652,-0.45704
28.656,-0.45967
28.66,-0.45969
28.664,-0.46157
28.668,-0.45931
28.672,-0.44958
28.676,-0.47124
28.68,-0.47221
28.684,-0.46235
28.688,-0.4584
28.692,-0.4617
28.696,-0.46388
28.7,-0.44861
28.704,-0.45684
28.708,-0.45398
28.712,-0.47528
28.716,-0.47342
28.72,-0.45489
28.724,-0.46707
28.728,-0.4779
28.732,-0.46705
28.736,-0.45755
28.74,-0.45893
28.744,-0.46494
28.748,-0.4663
28.752,-0.44648
28.756,-0.44581
28.76,-0.45307
28.764,-0.45102
28.768,-0.43127
28.772,-0.43162
28.776,-0.44462
28.78,-0.4542
28.784,-0.4541
28.788,-0.44654
28.792,-0.4576
28.796,-0.46578
28.8,-0.46678
28.804,-0.45727
28.808,-0.47403
28.812,-0.48754
28.816,-0.4777
28.82,-0.47848
28.824,-0.48828
28.828,-0.49826
28.832,-0.4862
28.836,-0.48981
28.84,-0.48595
28.844,-0.49112
28.848,-0.5088
28.852,-0.48986
28.856,-0.4874
28.86,-0.48878
28.864,-0.47475
28.868,-0.45626
28.872,-0.43364
28.876,-0.4257
28.88,-0.42072
28.884,-0.38748
28.888,-0.37656
28.892,-0.36919
28.896,-0.37201
28.9,-0.34968
28.904,-0.33929
28.908,-0.35436
28.912,-0.34731
28.916,-0.32414
28.92,-0.31686
28.924,-0.3207
28.928,-0.33464
28.932,-0.32495
28.936,-0.31717
28.94,-0.31603
28.944,-0.34837
28.948,-0.33992
28.952,-0.32922
28.956,-0.33854
28.96,-0.34835
28.964,-0.35611
28.968,-0.33839
28.972,-0.34218
28.976,-0.35499
28.98,-0.35496
28.984,-0.35537
28.988,-0.34973
28.992,-0.35168
28.996,-0.37125
29.0,-0.34537
29.004,-0.3342
29.008,-0.35227
29.012,-0.35333
29.016,-0.35653
29.02,-0.33668
29.024,-0.35102
29.028,-0.3885
29.032,-0.37321
29.036,-0.36441
29.04,-0.36376
29.044,-0.3804
29.048,-0.3946
29.052,-0.37562
29.056,-0.36878
29.06,-0.38632
29.064,-0.37972
29.068,-0.37265
29.072,-0.36612
29.076,-0.37584
29.08,-0.37827
29.084,-0.35899
29.088,-0.3652
29.092,-0.37147
29.096,-0.37926
29.1,-0.3648
29.104,-0.36735
29.108,-0.37153
29.112,-0.39015
29.116,-0.37039
29.12,-0.35947
29.124,-0.37154
29.128,-0.38573
29.132,-0.38655
29.136,-0.3696
29.14,-0.38166
29.144,-0.38867
29.148,-0.38057
29.152,-0.3721
29.156,-0.37402
29.16,-0.399
29.164,-0.38667
29.168,-0.36733
29.172,-0.36584
29.176,-0.37119
29.18,-0.37396
29.184,-0.35123
29.188,-0.34046
29.192,-0.34447
29.196,-0.33471
29.2,-0.30953
29.204,-0.30527
29.208,-0.30138
29.212,-0.30422
29.216,-0.28903
29.22,-0.26405
29.224,-0.26869
29.228,-0.27771
29.232,-0.27576
29.236,-0.26616
29.24,-0.26766
29.244,-0.28999
29.248,-0.29271
29.252,-0.27652
29.256,-0.27391
29.26,-0.29555
29.264,-0.29458
29.268,-0.25411
29.272,-0.24042
29.276,-0.27411
29.28,-0.30865
29.284,-0.31614
29.288,-0.3404
29.292,-0.37036
29.296,-0.38389
29.3,-0.38444
29.304,-0.37002
29.308,-0.37332
29.312,-0.38415
29.316,-0.38841
29.32,-0.38579
29.324,-0.38446
29.328,-0.40248
29.332,-0.39777
29.336,-0.38388
29.34,-0.38829
29.344,-0.40994
29.348,-0.40551
29.352,-0.38994
29.356,-0.39641
29.36,-0.41145
29.364,-0.42413
29.368,-0.4398
29.372,-0.48829
29.376,-0.53381
29.38,-0.55721
29.384,-0.56531
29.388,-0.61014
29.392,-0.65678
29.396,-0.556
29.4,-0.38953
29.404,-0.17495
29.408,0.08814
29.412,0.47731
29.416,0.82454
29.42,0.96247
29.424,0.77328
29.428,0.23538
29.432,-0.31029
29.436,-0.52073
29.44,-0.50403
29.444,-0.47021
29.448,-0.4388
29.452,-0.43191
29.456,-0.43957
29.46,-0.45395
29.464,-0.45238
29.468,-0.44498
29.472,-0.44332
29.476,-0.45855
29.48,-0.45874
29.484,-0.45161
29.488,-0.44542
29.492,-0.45317
29.496,-0.46205
29.5,-0.43966
29.504,-0.43489
29.508,-0.43936
29.512,-0.46155
29.516,-0.43879
29.52,-0.44356
29.524,-0.45361
29.528,-0.45792
29.532,-0.45706
29.536,-0.4424
29.54,-0.44592
29.544,-0.46389
29.548,-0.4521
29.552,-0.44098
29.556,-0.43584
29.56,-0.45321
29.564,-0.43925
29.568,-0.42578
29.572,-0.43196
29.576,-0.44774
29.58,-0.43769
29.584,-0.42936
29.588,-0.42786
29.592,-0.43734
29.596,-0.45277
29.6,-0.44548
29.604,-0.44162
29.608,-0.44595
29.612,-0.45055
29.616,-0.44065
29.62,-0.43784
29.624,-0.45575
29.628,-0.45128
29.632,-0.44008
29.636,-0.42419
29.64,-0.42051
29.644,-0.4452
29.648,-0.43766
29.652,-0.42407
29.656,-0.41899
29.66,-0.43104
29.664,-0.43775
29.668,-0.42554
29.672,-0.43304
29.676,-0.45149
29.68,-0.45832
29.684,-0.44095
29.688,-0.43486
29.692,-0.44889
29.696,-0.45768
29.7,-0.44283
29.704,-0.44154
29.708,-0.45399
29.712,-0.44843
29.716,-0.44787
29.72,-0.42272
29.724,-0.42139
29.728,-0.4275
29.732,-0.40175
29.736,-0.38052
29.74,-0.3629
29.744,-0.37061
29.748,-0.36422
29.752,-0.34124
29.756,-0.33658
29.76,-0.35182
29.764,-0.34662
29.768,-0.33494
29.772,-0.33428
29.776,-0.34492
29.78,-0.34627
29.784,-0.32957
29.788,-0.31995
29.792,-0.34203
29.796,-0.34287
29.8,-0.3229
29.804,-0.32554
29.808,-0.32697
29.812,-0.34645
29.816,-0.32544
29.82,-0.3216
29.824,-0.32988
29.828,-0.33887
29.832,-0.33166
29.836,-0.32449
29.84,-0.33137
29.844,-0.3444
29.848,-0.3506
29.852,-0.34035
29.856,-0.34519
29.86,-0.35806
29.864,-0.36447
29.868,-0.3572
29.872,-0.35515
29.876,-0.36751
29.88,-0.36739
29.884,-0.36166
29.888,-0.35378
29.892,-0.36183
29.896,-0.37135
29.9,-0.36781
29.904,-0.36157
29.908,-0.36723
29.912,-0.38501
29.916,-0.38449
29.92,-0.37641
29.924,-0.38533
29.928,-0.40148
29.932,-0.39206
29.936,-0.38367
29.94,-0.3865
29.944,-0.39889
29.948,-0.40139
29.952,-0.3818
29.956,-0.38054
29.96,-0.40017
29.964,-0.3968
29.968,-0.38719
29.972,-0.38053
29.976,-0.38351
29.98,-0.38289
29.984,-0.35912
29.988,-0.37752
29.992,-0.36828
29.996,-0.4038
