time_s,ecg_mv
0.0,0.00618
0.004,-0.00039
0.008,-0.00027
0.012,0.00306
0.016,-0.00586
0.02,-0.00296
0.024,0.00884
0.028,0.00107
0.032,-0.01348
0.036,-0.00234
0.04,0.01165
0.044,0.00135
0.048,0.00273
0.052,0.0126
0.056,0.02716
0.06,-0.00292
0.064,0.0222
0.068,-0.00837
0.072,0.00886
0.076,-0.0069
0.08,0.02373
0.084,0.01789
0.088,0.02191
0.092,-0.002
0.096,0.01721
0.1,0.00314
0.104,0.00425
0.108,0.01619
0.112,0.021
0.116,0.0133
0.12,0.00368
0.124,0.00167
0.128,0.02928
0.132,0.01944
0.136,0.02131
0.14,0.03924
0.144,0.00362
0.148,0.04448
0.152,0.05194
0.156,0.03391
0.16,0.02478
0.164,0.00725
0.168,0.0275
0.172,0.01062
0.176,0.01603
0.18,0.01316
0.184,0.0204
0.188,0.03281
0.192,0.01104
0.196,0.00623
0.2,0.00637
0.204,0.00714
0.208,0.00193
0.212,0.0085
0.216,0.03532
0.22,0.01303
0.224,0.02358
0.228,0.00623
0.232,0.02321
0.236,0.00063
0.24,0.01347
0.244,0.04925
0.248,0.01554
0.252,0.03631
0.256,0.02866
0.26,0.0217
0.264,0.01604
0.268,0.03964
0.272,0.0224
0.276,0.04318
0.28,0.01655
0.284,0.02619
0.288,0.03142
0.292,0.03063
0.296,0.01167
0.3,0.01882
0.304,0.02476
0.308,0.01718
0.312,0.03587
0.316,0.03511
0.32,0.00488
0.324,0.00701
0.328,0.0136
0.332,0.0307
0.336,0.05399
0.34,0.02531
0.344,0.03321
0.348,0.01775
0.352,0.01826
0.356,0.00766
0.36,0.03115
0.364,0.04325
0.368,0.02807
0.372,0.04969
0.376,0.03608
0.38,0.03433
0.384,0.04245
0.388,0.04414
0.392,0.05485
0.396,0.03515
0.4,0.02209
0.404,0.05685
0.408,0.05521
0.412,0.07031
0.416,0.09941
0.42,0.07526
0.424,0.10643
0.428,0.11639
0.432,0.11677
0.436,0.12873
0.44,0.11138
0.444,0.10764
0.448,0.12473
0.452,0.11522
0.456,0.11597
0.46,0.09359
0.464,0.10197
0.468,0.07081
0.472,0.0539
0.476,0.03561
0.48,0.04142
0.484,0.0602
0.488,0.0296
0.492,0.03947
0.496,0.06864
0.5,0.05255
0.504,0.06333
0.508,0.02966
0.512,0.01196
0.516,0.05972
0.52,0.02463
0.524,0.04288
0.528,0.04458
0.532,0.03077
0.536,0.06099
0.54,0.06114
0.544,0.04935
0.548,0.0425
0.552,0.04492
0.556,0.02789
0.56,0.03269
0.564,0.02086
0.568,-0.01173
0.572,-0.01861
0.576,-0.05648
0.58,-0.00527
0.584,0.10428
0.588,0.39374
0.592,0.75726
0.596,1.09506
0.6,1.25575
0.604,1.06569
0.608,0.66817
0.612,0.31561
0.616,-0.01159
0.62,-0.13684
0.624,-0.17663
0.628,-0.17043
0.632,-0.08802
0.636,-0.0429
0.64,0.00418
0.644,0.01664
0.648,0.05431
0.652,0.03433
0.656,0.02564
0.66,0.06509
0.664,0.04356
0.668,0.04997
0.672,0.07354
0.676,0.06547
0.68,0.06127
0.684,0.06898
0.688,0.05066
0.692,0.07265
0.696,0.08235
0.7,0.08491
0.704,0.08183
0.708,0.04956
0.712,0.11343
0.716,0.1224
0.72,0.13294
0.724,0.16504
0.728,0.17899
0.732,0.19976
0.736,0.20196
0.74,0.22503
0.744,0.2694
0.748,0.28712
0.752,0.30718
0.756,0.32409
0.76,0.34016
0.764,0.34478
0.768,0.35093
0.772,0.35215
0.776,0.35563
0.78,0.32927
0.784,0.33184
0.788,0.31356
0.792,0.28797
0.796,0.25984
0.8,0.24765
0.804,0.23089
0.808,0.18526
0.812,0.17749
0.816,0.15751
0.82,0.13056
0.824,0.1148
0.828,0.08943
0.832,0.08268
0.836,0.06731
0.84,0.07002
0.844,0.06397
0.848,0.05887
0.852,0.06568
0.856,0.05581
0.86,0.04694
0.864,0.04527
0.868,0.03907
0.872,0.04938
0.876,0.04851
0.88,0.0701
0.884,0.06871
0.888,0.0678
0.892,0.07485
0.896,0.03518
0.9,0.05776
0.904,0.05874
0.908,0.05525
0.912,0.07499
0.916,0.07986
0.92,0.06109
0.924,0.05711
0.928,0.03574
0.932,0.03569
0.936,0.05747
0.94,0.04809
0.944,0.03295
0.948,0.04735
0.952,0.05307
0.956,0.0599
0.96,0.04729
0.964,0.04526
0.968,0.04847
0.972,0.05038
0.976,0.03425
0.98,0.0581
0.984,0.07428
0.988,0.05766
0.992,0.0304
0.996,0.0488
1.0,0.02637
1.004,0.02548
1.008,0.05523
1.012,0.04812
1.016,0.03882
1.02,0.02189
1.024,0.03158
1.028,0.04862
1.032,0.04692
1.036,0.05467
1.04,0.06453
1.044,0.04204
1.048,0.05159
1.052,0.04416
1.056,0.0397
1.06,0.04257
1.064,0.05688
1.068,0.03285
1.072,0.05872
1.076,0.06259
1.08,0.04512
1.084,0.04758
1.088,0.02741
1.092,0.0725
1.096,0.05574
1.1,0.04588
1.104,0.04432
1.108,0.04886
1.112,0.03544
1.116,0.04647
1.12,0.03179
1.124,0.04865
1.128,0.03435
1.132,0.05303
1.136,0.04064
1.14,0.0451
1.144,0.0772
1.148,0.05111
1.152,0.04446
1.156,0.04157
1.16,0.02835
1.164,0.05362
1.168,0.05963
1.172,0.04097
1.176,0.06013
1.18,0.03851
1.184,0.0185
1.188,0.03194
1.192,0.02727
1.196,0.03708
1.2,0.04869
1.204,0.03131
1.208,0.04346
1.212,0.04964
1.216,0.04229
1.22,0.04514
1.224,0.06324
1.228,0.07987
1.232,0.07022
1.236,0.07695
1.24,0.09268
1.244,0.10556
1.248,0.10189
1.252,0.10878
1.256,0.112
1.26,0.10113
1.264,0.10883
1.268,0.09876
1.272,0.11719
1.276,0.08348
1.28,0.08614
1.284,0.07624
1.288,0.04986
1.292,0.04081
1.296,0.04408
1.3,0.05217
1.304,0.03325
1.308,0.02914
1.312,-0.0001
1.316,0.02826
1.32,0.03556
1.324,0.03626
1.328,0.03541
1.332,0.02581
1.336,0.0266
1.34,0.03894
1.344,0.02698
1.348,0.00064
1.352,0.0402
1.356,0.01471
1.36,0.04382
1.364,0.04729
1.368,0.03556
1.372,0.03586
1.376,0.04317
1.38,-0.0029
1.384,-0.00714
1.388,-0.03536
1.392,-0.07033
1.396,-0.0185
1.4,0.04237
1.404,0.2486
1.408,0.59098
1.412,0.96768
1.416,1.1758
1.42,1.11826
1.424,0.8125
1.428,0.37983
1.432,0.05366
1.436,-0.14229
1.44,-0.21138
1.444,-0.20204
1.448,-0.13076
1.452,-0.08332
1.456,-0.0441
1.46,-0.01399
1.464,0.01696
1.468,0.01944
1.472,0.02782
1.476,0.03454
1.48,0.00613
1.484,-0.00856
1.488,0.01865
1.492,0.02062
1.496,0.0243
1.5,0.01542
1.504,0.02229
1.508,0.03517
1.512,0.04031
1.516,0.05475
1.52,0.02014
1.524,0.03546
1.528,0.08381
1.532,0.08663
1.536,0.104
1.54,0.10823
1.544,0.125
1.548,0.15369
1.552,0.16174
1.556,0.17696
1.56,0.20419
1.564,0.24026
1.568,0.26619
1.572,0.2956
1.576,0.2943
1.58,0.30574
1.584,0.32626
1.588,0.29803
1.592,0.29251
1.596,0.28972
1.6,0.28298
1.604,0.2927
1.608,0.24553
1.612,0.24446
1.616,0.20071
1.62,0.18924
1.624,0.16856
1.628,0.14456
1.632,0.12621
1.636,0.08962
1.64,0.09797
1.644,0.07693
1.648,0.04348
1.652,0.04673
1.656,0.01841
1.66,0.02476
1.664,0.00338
1.668,0.02114
1.672,0.04423
1.676,0.0233
1.68,0.0121
1.684,-0.0093
1.688,0.00471
1.692,0.01327
1.696,-0.00287
1.7,-0.00097
1.704,-0.02345
1.708,-0.01391
1.712,-0.02629
1.716,0.01842
1.72,0.00071
1.724,0.00334
1.728,-0.00818
1.732,-0.02366
1.736,-0.0044
1.74,-0.01452
1.744,-0.0189
1.748,-0.00697
1.752,-0.00669
1.756,-0.01055
1.76,-0.01804
1.764,-0.02095
1.768,-0.00942
1.772,0.00481
1.776,-0.02948
1.78,-0.01849
1.784,-0.01292
1.788,-0.01324
1.792,-0.01882
1.796,0.01107
1.8,-0.00764
1.804,-0.02462
1.808,-0.03575
1.812,-0.01559
1.816,0.00386
1.82,-0.01194
1.824,-0.0424
1.828,-0.0315
1.832,-0.01386
1.836,-0.00288
1.84,-0.01435
1.844,-0.01461
1.848,-0.00388
1.852,-0.00204
1.856,-0.02559
1.86,-0.01256
1.864,-0.02966
1.868,-0.03144
1.872,-0.01181
1.876,-0.0363
1.88,-0.01753
1.884,-0.01614
1.888,-0.00992
1.892,-0.03441
1.896,-0.01638
1.9,-0.02279
1.904,-0.0038
1.908,-0.03088
1.912,-0.03563
1.916,-0.01664
1.92,-0.03325
1.924,-0.03884
1.928,-0.01273
1.932,-0.01881
1.936,-0.06164
1.94,-0.03569
1.944,-0.03826
1.948,-0.01756
1.952,-0.00794
1.956,-0.00124
1.96,-0.01779
1.964,-0.03973
1.968,-0.04047
1.972,-0.03865
1.976,-0.02166
1.98,-0.01266
1.984,-0.05117
1.988,-0.02116
1.992,-0.01764
1.996,-0.02529
2.0,0.00945
2.004,-0.02326
2.008,-0.02958
2.012,-0.02291
2.016,-0.03701
2.02,-0.04387
2.024,-0.02572
2.028,-0.01693
2.032,-0.03337
2.036,-0.01892
2.04,-0.03359
2.044,-0.00796
2.048,-0.02266
2.052,-0.01558
2.056,-0.00848
2.06,-0.02841
2.064,-0.00774
2.068,0.02415
2.072,0.01081
2.076,0.03573
2.08,0.03766
2.084,0.01226
2.088,0.04817
2.092,0.02994
2.096,0.04693
2.1,0.03699
2.104,0.03795
2.108,0.03047
2.112,0.02632
2.116,0.00924
2.12,-0.01064
2.124,-0.01527
2.128,-0.00013
2.132,0.00263
2.136,-0.02106
2.14,-0.01836
2.144,-0.02031
2.148,-0.05108
2.152,-0.0591
2.156,-0.03862
2.16,-0.06168
2.164,-0.04293
2.168,-0.05791
2.172,-0.04804
2.176,-0.04987
2.18,-0.03489
2.184,-0.04913
2.188,-0.05536
2.192,-0.04122
2.196,-0.00641
2.2,-0.03632
2.204,-0.06586
2.208,-0.04211
2.212,-0.01456
2.216,-0.04982
2.22,-0.05126
2.224,-0.07814
2.228,-0.10437
2.232,-0.11375
2.236,-0.07686
2.24,0.05931
2.244,0.32663
2.248,0.69678
2.252,1.02745
2.256,1.11233
2.26,0.93092
2.264,0.54826
2.268,0.16061
2.272,-0.11535
2.276,-0.23598
2.28,-0.27847
2.284,-0.25209
2.288,-0.20635
2.292,-0.14429
2.296,-0.08964
2.3,-0.06534
2.304,-0.07857
2.308,-0.03779
2.312,-0.05545
2.316,-0.05715
2.32,-0.03251
2.324,-0.03138
2.328,-0.05307
2.332,-0.04763
2.336,-0.05637
2.34,-0.0296
2.344,-0.02539
2.348,-0.03739
2.352,-0.01009
2.356,-0.009
2.36,-0.0131
2.364,0.00729
2.368,-0.009
2.372,0.02201
2.376,0.04456
2.38,0.05976
2.384,0.10458
2.388,0.10518
2.392,0.12821
2.396,0.13051
2.4,0.1664
2.404,0.18022
2.408,0.23676
2.412,0.21974
2.416,0.23881
2.42,0.26057
2.424,0.25801
2.428,0.23269
2.432,0.25216
2.436,0.2435
2.44,0.21931
2.444,0.21021
2.448,0.18639
2.452,0.14713
2.456,0.13455
2.46,0.11882
2.464,0.08919
2.468,0.08135
2.472,0.06702
2.476,0.04019
2.48,0.01635
2.484,0.02317
2.488,-0.00348
2.492,-0.01087
2.496,-0.03245
2.5,-0.03248
2.504,-0.02309
2.508,-0.03016
2.512,-0.04439
2.516,-0.04432
2.52,-0.0437
2.524,-0.05859
2.528,-0.05036
2.532,-0.05485
2.536,-0.06573
2.54,-0.04753
2.544,-0.05123
2.548,-0.06716
2.552,-0.05918
2.556,-0.05069
2.56,-0.08433
2.564,-0.0474
2.568,-0.04637
2.572,-0.04174
2.576,-0.05663
2.58,-0.0665
2.584,-0.04183
2.588,-0.06581
2.592,-0.04276
2.596,-0.05729
2.6,-0.06126
2.604,-0.04551
2.608,-0.0355
2.612,-0.05077
2.616,-0.05176
2.62,-0.06899
2.624,-0.03867
2.628,-0.04768
2.632,-0.05172
2.636,-0.03267
2.64,-0.06708
2.644,-0.05422
2.648,-0.04801
2.652,-0.05151
2.656,-0.07709
2.66,-0.04355
2.664,-0.048
2.668,-0.03538
2.672,-0.02292
2.676,-0.04953
2.68,-0.04254
2.684,-0.04399
2.688,-0.04486
2.692,-0.04842
2.696,-0.04199
2.7,-0.03295
2.704,-0.05654
2.708,-0.02339
2.712,-0.03999
2.716,-0.04228
2.72,-0.07275
2.724,-0.04574
2.728,-0.05716
2.732,-0.0384
2.736,-0.03367
2.74,-0.03117
2.744,-0.0468
2.748,-0.04553
2.752,-0.03922
2.756,-0.06947
2.76,-0.04932
2.764,-0.05045
2.768,-0.0375
2.772,-0.04906
2.776,-0.03446
2.78,-0.04551
2.784,-0.03274
2.788,-0.01619
2.792,-0.02392
2.796,-0.03104
2.8,-0.02846
2.804,-0.04637
2.808,-0.05099
2.812,-0.05162
2.816,-0.0388
2.82,-0.02306
2.824,-0.04894
2.828,-0.0338
2.832,-0.0533
2.836,-0.05139
2.84,-0.02435
2.844,-0.03994
2.848,-0.03639
2.852,0.00091
2.856,-0.0158
2.86,-0.00986
2.864,-0.00382
2.868,0.01281
2.872,0.00835
2.876,0.02609
2.88,0.04589
2.884,0.03471
2.888,0.01349
2.892,0.0351
2.896,0.05049
2.9,0.05061
2.904,0.0354
2.908,0.0406
2.912,0.00264
2.916,0.02194
2.92,0.00099
2.924,-0.00074
2.928,-0.04944
2.932,-0.00949
2.936,-0.02135
2.94,-0.00415
2.944,-0.02682
2.948,-0.04209
2.952,-0.04085
2.956,-0.02675
2.96,-0.02807
2.964,-0.03935
2.968,-0.04441
2.972,-0.0132
2.976,-0.03401
2.98,-0.03169
2.984,-0.03699
2.988,-0.01351
2.992,-0.01661
2.996,-0.04197
3.0,-0.03045
3.004,-0.0409
3.008,-0.00969
3.012,-0.03354
3.016,-0.05802
3.02,-0.08418
3.024,-0.09912
3.028,-0.11027
3.032,-0.03072
3.036,0.0995
3.04,0.38332
3.044,0.78627
3.048,1.0697
3.052,1.15377
3.056,0.91537
3.06,0.49126
3.064,0.12389
3.068,-0.11751
3.072,-0.23643
3.076,-0.24966
3.08,-0.2246
3.084,-0.16024
3.088,-0.09165
3.092,-0.04718
3.096,-0.04881
3.1,-0.03041
3.104,-0.02416
3.108,-0.03677
3.112,-0.00823
3.116,-0.01179
3.12,-0.01126
3.124,-0.01752
3.128,-0.00404
3.132,-0.0007
3.136,0.00454
3.14,-0.0077
3.144,0.00329
3.148,0.00042
3.152,0.00866
3.156,0.03344
3.16,0.03329
3.164,0.04379
3.168,0.06793
3.172,0.0858
3.176,0.08784
3.18,0.10988
3.184,0.14828
3.188,0.16893
3.192,0.18316
3.196,0.22253
3.2,0.22815
3.204,0.22517
3.208,0.25491
3.212,0.25928
3.216,0.29911
3.22,0.29531
3.224,0.2899
3.228,0.25528
3.232,0.25564
3.236,0.25794
3.24,0.22151
3.244,0.23475
3.248,0.20103
3.252,0.17842
3.256,0.15705
3.26,0.12458
3.264,0.10271
3.268,0.0732
3.272,0.07886
3.276,0.06806
3.28,0.04702
3.284,0.03522
3.288,0.01801
3.292,0.02475
3.296,-0.01366
3.3,-0.00212
3.304,-0.00026
3.308,-0.00103
3.312,0.00588
3.316,-0.00028
3.32,0.00312
3.324,0.01576
3.328,0.01709
3.332,0.00838
3.336,0.01571
3.34,0.02168
3.344,0.00564
3.348,-0.01528
3.352,0.01389
3.356,-0.00976
3.36,0.02488
3.364,0.0236
3.368,-0.00295
3.372,-0.00955
3.376,-0.00424
3.38,0.00361
3.384,0.02014
3.388,-0.00968
3.392,0.0161
3.396,-0.01894
3.4,0.02083
3.404,0.0059
3.408,0.00941
3.412,0.00611
3.416,0.01899
3.42,0.01259
3.424,0.02876
3.428,-0.01244
3.432,-0.00162
3.436,-0.00654
3.44,0.0186
3.444,-0.0099
3.448,0.0399
3.452,0.01219
3.456,0.02612
3.46,0.00023
3.464,0.01455
3.468,0.02005
3.472,0.00444
3.476,0.01055
3.48,0.03234
3.484,0.02921
3.488,0.02132
3.492,0.03839
3.496,-0.00826
3.5,0.01895
3.504,0.01123
3.508,0.03325
3.512,0.02984
3.516,0.03091
3.52,0.01007
3.524,0.02432
3.528,0.0309
3.532,0.03386
3.536,0.00752
3.54,0.01079
3.544,0.02228
3.548,0.03642
3.552,0.02747
3.556,0.03688
3.56,-0.00271
3.564,0.0178
3.568,0.02739
3.572,0.02498
3.576,-0.00061
3.58,0.03563
3.584,0.0269
3.588,0.01749
3.592,0.0378
3.596,0.00301
3.6,0.01795
3.604,0.03503
3.608,0.02926
3.612,0.02238
3.616,0.02355
3.62,0.02292
3.624,0.03645
3.628,0.02271
3.632,0.03482
3.636,0.00196
3.64,0.04207
3.644,0.05693
3.648,0.03394
3.652,0.02722
3.656,0.02215
3.66,0.03729
3.664,0.02141
3.668,0.01972
3.672,0.00435
3.676,0.0332
3.68,0.02727
3.684,0.02851
3.688,0.03209
3.692,0.02467
3.696,0.03687
3.7,0.02367
3.704,0.03798
3.708,0.03963
3.712,0.02721
3.716,0.03903
3.72,0.05347
3.724,0.06187
3.728,0.0805
3.732,0.0816
3.736,0.09465
3.74,0.09825
3.744,0.07841
3.748,0.11225
3.752,0.10538
3.756,0.11269
3.76,0.10204
3.764,0.11355
3.768,0.09794
3.772,0.0988
3.776,0.09114
3.78,0.06665
3.784,0.07561
3.788,0.06194
3.792,0.04101
3.796,0.04799
3.8,0.04726
3.804,0.05905
3.808,0.03805
3.812,0.06009
3.816,0.04991
3.82,0.01503
3.824,0.02789
3.828,0.04741
3.832,0.02303
3.836,0.04637
3.84,0.05744
3.844,0.03783
3.848,0.05815
3.852,0.05735
3.856,0.04098
3.86,0.0414
3.864,0.0438
3.868,0.04555
3.872,0.01643
3.876,0.02061
3.88,-0.02071
3.884,-0.03229
3.888,-0.04339
3.892,-0.02768
3.896,0.10259
3.9,0.36065
3.904,0.7476
3.908,1.05162
3.912,1.22172
3.916,1.06261
3.92,0.7023
3.924,0.31882
3.928,0.01708
3.932,-0.13598
3.936,-0.18032
3.94,-0.15678
3.944,-0.13554
3.948,-0.04688
3.952,-0.00691
3.956,0.02742
3.96,0.04736
3.964,0.0487
3.968,0.05448
3.972,0.0332
3.976,0.05335
3.98,0.04743
3.984,0.04871
3.988,0.06671
3.992,0.04706
3.996,0.04736
4.0,0.0428
4.004,0.05919
4.008,0.08092
4.012,0.05479
4.016,0.08615
4.02,0.06288
4.024,0.09708
4.028,0.12476
4.032,0.12927
4.036,0.13953
4.04,0.16954
4.044,0.20727
4.048,0.23572
4.052,0.25876
4.056,0.27128
4.06,0.28879
4.064,0.31577
4.068,0.30686
4.072,0.32251
4.076,0.35906
4.08,0.35885
4.084,0.35946
4.088,0.34734
4.092,0.32606
4.096,0.31022
4.1,0.31818
4.104,0.30088
4.108,0.25339
4.112,0.23571
4.116,0.22068
4.12,0.21002
4.124,0.17395
4.128,0.1477
4.132,0.15144
4.136,0.13036
4.14,0.10055
4.144,0.08872
4.148,0.09968
4.152,0.06254
4.156,0.06758
4.16,0.07109
4.164,0.06347
4.168,0.06944
4.172,0.03535
4.176,0.05432
4.18,0.05643
4.184,0.05589
4.188,0.05816
4.192,0.03678
4.196,0.06781
4.2,0.05569
4.204,0.05682
4.208,0.04306
4.212,0.05207
4.216,0.0658
4.22,0.04959
4.224,0.05207
4.228,0.05348
4.232,0.03003
4.236,0.04751
4.24,0.05784
4.244,0.04361
4.248,0.04891
4.252,0.04896
4.256,0.03033
4.26,0.05888
4.264,0.03291
4.268,0.05416
4.272,0.04741
4.276,0.04485
4.28,0.04966
4.284,0.05783
4.288,0.05846
4.292,0.04345
4.296,0.04655
4.3,0.03812
4.304,0.0308
4.308,0.05965
4.312,0.03497
4.316,0.03921
4.32,0.05248
4.324,0.03164
4.328,0.05347
4.332,0.03747
4.336,0.03384
4.34,0.04039
4.344,0.03702
4.348,0.04994
4.352,0.064
4.356,0.05494
4.36,0.0523
4.364,0.0392
4.368,0.04355
4.372,0.04741
4.376,0.04525
4.38,0.04751
4.384,0.0312
4.388,0.06658
4.392,0.02911
4.396,0.04318
4.4,0.05468
4.404,0.03563
4.408,0.057
4.412,0.02728
4.416,0.03511
4.42,0.01563
4.424,0.05605
4.428,0.02913
4.432,0.03495
4.436,0.05224
4.44,0.04697
4.444,0.05541
4.448,0.0502
4.452,0.05292
4.456,0.03626
4.46,0.04079
4.464,0.05048
4.468,0.05044
4.472,0.05255
4.476,0.0318
4.48,0.02763
4.484,0.02551
4.488,0.03467
4.492,0.03892
4.496,0.0256
4.5,0.03749
4.504,0.04706
4.508,0.05113
4.512,0.03201
4.516,0.04567
4.52,0.02338
4.524,0.03066
4.528,0.03984
4.532,0.03094
4.536,0.0297
4.54,0.04295
4.544,0.02899
4.548,0.04401
4.552,0.04401
4.556,0.05498
4.56,0.06264
4.564,0.06105
4.568,0.06047
4.572,0.08642
4.576,0.08512
4.58,0.08068
4.584,0.10122
4.588,0.09849
4.592,0.08039
4.596,0.10173
4.6,0.10866
4.604,0.10508
4.608,0.08711
4.612,0.09443
4.616,0.09546
4.62,0.06769
4.624,0.07541
4.628,0.03943
4.632,0.0621
4.636,0.0426
4.64,0.02785
4.644,0.05289
4.648,0.04183
4.652,0.04516
4.656,0.03568
4.66,0.03481
4.664,0.02509
4.668,0.03404
4.672,0.02743
4.676,0.02033
4.68,0.02533
4.684,0.01196
4.688,0.02659
4.692,0.03184
4.696,0.02774
4.7,0.03272
4.704,0.02186
4.708,0.02549
4.712,0.02434
4.716,0.04379
4.72,-0.00354
4.724,0.01797
4.728,-0.04199
4.732,-0.06156
4.736,-0.04952
4.74,0.02524
4.744,0.1973
4.748,0.50653
4.752,0.89294
4.756,1.18305
4.76,1.16861
4.764,0.90009
4.768,0.48434
4.772,0.14479
4.776,-0.10304
4.78,-0.19339
4.784,-0.22039
4.788,-0.19856
4.792,-0.08161
4.796,-0.04296
4.8,-0.00778
4.804,-0.00895
4.808,-0.00767
4.812,0.01249
4.816,0.01783
4.82,0.02533
4.824,0.01712
4.828,0.03258
4.832,0.02217
4.836,0.0228
4.84,0.03454
4.844,0.01511
4.848,0.03077
4.852,0.02383
4.856,0.02791
4.86,0.06088
4.864,0.06459
4.868,0.06857
4.872,0.09034
4.876,0.09394
4.88,0.12228
4.884,0.11482
4.888,0.14342
4.892,0.17123
4.896,0.17697
4.9,0.20323
4.904,0.21809
4.908,0.26099
4.912,0.26531
4.916,0.28883
4.92,0.303
4.924,0.30184
4.928,0.30638
4.932,0.30547
4.936,0.30202
4.94,0.30175
4.944,0.25789
4.948,0.25388
4.952,0.21811
4.956,0.22732
4.96,0.16555
4.964,0.16615
4.968,0.13681
4.972,0.11365
4.976,0.10918
4.98,0.08917
4.984,0.05577
4.988,0.05884
4.992,0.04507
4.996,0.02308
5.0,0.00662
5.004,0.02671
5.008,0.02038
5.012,0.0142
5.016,-0.00135
5.02,0.01674
5.024,0.04119
5.028,0.00092
5.032,0.00414
5.036,-0.01273
5.04,-0.01337
5.044,0.01634
5.048,0.02191
5.052,-0.00843
5.056,-0.01372
5.06,-0.01731
5.064,-0.01403
5.068,-0.00658
5.072,-0.0224
5.076,-0.01642
5.08,0.00285
5.084,-0.01078
5.088,-0.01848
5.092,-0.02354
5.096,0.00275
5.1,-0.02281
5.104,-0.01243
5.108,0.0008
5.112,-0.00506
5.116,-0.00838
5.12,-0.00864
5.124,-0.02388
5.128,-0.02153
5.132,-0.01885
5.136,-0.04789
5.14,-0.01901
5.144,-0.0156
5.148,-0.01576
5.152,-0.0166
5.156,-0.01306
5.16,-0.01263
5.164,0.00329
5.168,-0.0147
5.172,-0.00672
5.176,-0.02433
5.18,-0.01369
5.184,-0.01446
5.188,-0.02098
5.192,-0.039
5.196,-0.035
5.2,-0.01392
5.204,-0.02024
5.208,-0.0229
5.212,-0.0284
5.216,-0.01956
5.22,-0.01413
5.224,0.00094
5.228,-0.02176
5.232,-0.02401
5.236,-0.01898
5.24,-0.00862
5.244,0.00472
5.248,-0.01649
5.252,-0.0407
5.256,-0.02351
5.26,-0.03771
5.264,-0.03597
5.268,-0.00311
5.272,-0.02923
5.276,-0.03393
5.28,-0.00928
5.284,-0.02506
5.288,-0.03985
5.292,-0.02588
5.296,-0.04361
5.3,-0.03749
5.304,-0.02527
5.308,-0.05832
5.312,-0.01955
5.316,-0.02536
5.32,-0.01863
5.324,-0.03368
5.328,-0.02424
5.332,-0.0414
5.336,-0.04092
5.34,-0.0289
5.344,-0.03006
5.348,-0.03072
5.352,-0.01458
5.356,-0.0341
5.36,-0.02534
5.364,-0.02626
5.368,-0.02779
5.372,-0.02356
5.376,-0.0474
5.38,-0.03059
5.384,-0.00704
5.388,-0.01895
5.392,-0.00107
5.396,0.00332
5.4,-0.03085
5.404,-0.00161
5.408,0.01456
5.412,0.02216
5.416,0.03143
5.42,0.03622
5.424,0.03387
5.428,0.03529
5.432,0.01692
5.436,0.05832
5.44,0.0446
5.444,0.03004
5.448,0.00956
5.452,-0.00934
5.456,0.02236
5.46,-0.02572
5.464,-0.0037
5.468,-0.02243
5.472,-0.04122
5.476,-0.04323
5.48,-0.04081
5.484,-0.04493
5.488,-0.05559
5.492,-0.03437
5.496,-0.05109
5.5,-0.03136
5.504,-0.04301
5.508,-0.03945
5.512,-0.04002
5.516,-0.0463
5.52,-0.04304
5.524,-0.04001
5.528,-0.01458
5.532,-0.05797
5.536,-0.05138
5.54,-0.04874
5.544,-0.06283
5.548,-0.07335
5.552,-0.09536
5.556,-0.10514
5.56,-0.13307
5.564,-0.11361
5.568,-0.05
5.572,0.15197
5.576,0.49407
5.58,0.8631
5.584,1.08522
5.588,1.08657
5.592,0.77063
5.596,0.35484
5.6,0.03102
5.604,-0.17557
5.608,-0.30013
5.612,-0.25988
5.616,-0.23125
5.62,-0.17273
5.624,-0.11951
5.628,-0.06727
5.632,-0.04581
5.636,-0.04818
5.64,-0.03956
5.644,-0.02226
5.648,-0.04756
5.652,-0.05904
5.656,-0.03997
5.66,-0.03686
5.664,-0.0458
5.668,-0.04427
5.672,-0.0136
5.676,-0.03886
5.68,-0.04183
5.684,-0.05735
5.688,-0.0079
5.692,0.00674
5.696,-0.01143
5.7,0.02272
5.704,0.02691
5.708,0.04904
5.712,0.06036
5.716,0.08805
5.72,0.12049
5.724,0.1266
5.728,0.14713
5.732,0.16494
5.736,0.2107
5.74,0.20505
5.744,0.23719
5.748,0.22578
5.752,0.22184
5.756,0.24277
5.76,0.24975
5.764,0.25283
5.768,0.23806
5.772,0.21734
5.776,0.16554
5.78,0.18072
5.784,0.13532
5.788,0.122
5.792,0.1291
5.796,0.09774
5.8,0.05208
5.804,0.04173
5.808,0.03808
5.812,0.01173
5.816,-0.00218
5.82,-0.02409
5.824,-0.01339
5.828,-0.01925
5.832,-0.04275
5.836,-0.06212
5.84,-0.01978
5.844,-0.05249
5.848,-0.04109
5.852,-0.05775
5.856,-0.05746
5.86,-0.03781
5.864,-0.05353
5.868,-0.04082
5.872,-0.04074
5.876,-0.05651
5.88,-0.04691
5.884,-0.04118
5.888,-0.03557
5.892,-0.05361
5.896,-0.05025
5.9,-0.06156
5.904,-0.04091
5.908,-0.04899
5.912,-0.06609
5.916,-0.05425
5.92,-0.05137
5.924,-0.05698
5.928,-0.05846
5.932,-0.06933
5.936,-0.04852
5.94,-0.05469
5.944,-0.03857
5.948,-0.05068
5.952,-0.03933
5.956,-0.06353
5.96,-0.04465
5.964,-0.04037
5.968,-0.04008
5.972,-0.05215
5.976,-0.05933
5.98,-0.02867
5.984,-0.05081
5.988,-0.06262
5.992,-0.05075
5.996,-0.04417
6.0,-0.05648
6.004,-0.04292
6.008,-0.03697
6.012,-0.04807
6.016,-0.03532
6.02,-0.04866
6.024,-0.05273
6.028,-0.02805
6.032,-0.0393
6.036,-0.04537
6.04,-0.06802
6.044,-0.06287
6.048,-0.06616
6.052,-0.0466
6.056,-0.0463
6.06,-0.04085
6.064,-0.03328
6.068,-0.06371
6.072,-0.0614
6.076,-0.0561
6.08,-0.03953
6.084,-0.04136
6.088,-0.05706
6.092,-0.05287
6.096,-0.03976
6.1,-0.0433
6.104,-0.0318
6.108,-0.05347
6.112,-0.04522
6.116,-0.05523
6.12,-0.02945
6.124,-0.03074
6.128,-0.03697
6.132,-0.03094
6.136,-0.0259
6.14,-0.02475
6.144,-0.02162
6.148,-0.05021
6.152,-0.05094
6.156,-0.02581
6.16,-0.04599
6.164,-0.06178
6.168,-0.04585
6.172,-0.02794
6.176,-0.04538
6.18,-0.0303
6.184,-0.03528
6.188,-0.05434
6.192,-0.03192
6.196,-0.03587
6.2,-0.04071
6.204,-0.0487
6.208,-0.009
6.212,-0.0346
6.216,-0.04246
6.22,-0.0013
6.224,-0.00878
6.228,0.01941
6.232,0.013
6.236,0.02295
6.24,0.03824
6.244,0.03925
6.248,0.04382
6.252,0.05763
6.256,0.03343
6.26,0.04795
6.264,0.03954
6.268,0.00995
6.272,0.03441
6.276,0.02184
6.28,0.02269
6.284,-0.00869
6.288,-0.02341
6.292,0.0209
6.296,-0.03255
6.3,-0.03325
6.304,-0.01952
6.308,-0.03298
6.312,-0.02387
6.316,-0.04527
6.32,-0.04999
6.324,-0.03623
6.328,-0.02148
6.332,-0.02976
6.336,-0.01479
6.34,-0.032
6.344,-0.0263
6.348,-0.03914
6.352,-0.04546
6.356,-0.04219
6.36,-0.0369
6.364,-0.0038
6.368,-0.04373
6.372,-0.04297
6.376,-0.02701
6.38,-0.0726
6.384,-0.08514
6.388,-0.13654
6.392,-0.09676
6.396,0.02653
6.4,0.22545
6.404,0.59098
6.408,0.95041
6.412,1.14051
6.416,1.04799
6.42,0.71867
6.424,0.30292
6.428,-0.00141
6.432,-0.18078
6.436,-0.23234
6.44,-0.24202
6.444,-0.18383
6.448,-0.1394
6.452,-0.07075
6.456,-0.05512
6.46,-0.02234
6.464,-0.02542
6.468,-0.02099
6.472,-0.01477
6.476,-0.02547
6.48,-0.02363
6.484,-0.0219
6.488,-0.01942
6.492,-0.00352
6.496,-0.01309
6.5,-0.01203
6.504,0.00891
6.508,0.01271
6.512,0.00927
6.516,0.04896
6.52,0.01696
6.524,0.06077
6.528,0.05866
6.532,0.08374
6.536,0.08624
6.54,0.12383
6.544,0.11952
6.548,0.16347
6.552,0.18008
6.556,0.21065
6.56,0.21596
6.564,0.24698
6.568,0.25014
6.572,0.26957
6.576,0.28134
6.58,0.28315
6.584,0.28602
6.588,0.27408
6.592,0.27957
6.596,0.28665
6.6,0.28793
6.604,0.22558
6.608,0.20611
6.612,0.19744
6.616,0.17711
6.62,0.13349
6.624,0.10002
6.628,0.11073
6.632,0.10531
6.636,0.08996
6.64,0.05852
6.644,0.06305
6.648,0.03412
6.652,0.01102
6.656,0.01945
6.66,0.0282
6.664,0.01334
6.668,0.00201
6.672,0.00729
6.676,0.00919
6.68,0.00584
6.684,0.00722
6.688,0.00781
6.692,0.016
6.696,0.00484
6.7,0.0016
6.704,0.00796
6.708,0.01104
6.712,-0.01661
6.716,0.01836
6.72,0.02531
6.724,0.00564
6.728,0.01307
6.732,-0.00278
6.736,0.01452
6.74,-0.00337
6.744,0.00936
6.748,0.01448
6.752,-0.00149
6.756,-0.00496
6.76,0.00455
6.764,0.0023
6.768,0.00555
6.772,-0.00339
6.776,0.02316
6.78,0.00729
6.784,0.01619
6.788,-0.00824
6.792,0.00459
6.796,0.03113
6.8,0.00184
6.804,0.01614
6.808,0.03816
6.812,0.01342
6.816,0.03186
6.82,0.00342
6.824,0.00879
6.828,0.01417
6.832,0.00876
6.836,0.01971
6.84,-0.00535
6.844,0.00358
6.848,0.03236
6.852,0.01845
6.856,0.02321
6.86,0.03789
6.864,-0.00289
6.868,-0.01741
6.872,0.03999
6.876,0.00264
6.88,0.02038
6.884,0.00022
6.888,-0.0106
6.892,0.01946
6.896,0.0263
6.9,0.01114
6.904,-0.00911
6.908,0.02537
6.912,0.0448
6.916,0.00159
6.92,0.03184
6.924,0.02632
6.928,0.00112
6.932,0.03578
6.936,0.0262
6.94,0.02263
6.944,0.03998
6.948,0.02538
6.952,0.04067
6.956,0.05709
6.96,0.02859
6.964,0.03164
6.968,0.01984
6.972,0.04547
6.976,0.01266
6.98,0.0216
6.984,0.0274
6.988,0.02627
6.992,0.02022
6.996,0.03962
7.0,0.02567
7.004,0.00389
7.008,0.04397
7.012,0.05117
7.016,0.02409
7.02,0.04754
7.024,0.02543
7.028,0.02066
7.032,0.02257
7.036,0.05471
7.04,0.05347
7.044,0.04812
7.048,0.03125
7.052,0.05766
7.056,0.04086
7.06,0.06838
7.064,0.06234
7.068,0.07081
7.072,0.08043
7.076,0.07065
7.08,0.08237
7.084,0.10802
7.088,0.10121
7.092,0.12578
7.096,0.1292
7.1,0.09306
7.104,0.08818
7.108,0.09707
7.112,0.11427
7.116,0.07291
7.12,0.07999
7.124,0.04651
7.128,0.04874
7.132,0.0599
7.136,0.0468
7.14,0.0524
7.144,0.04553
7.148,0.04226
7.152,0.04099
7.156,0.05727
7.16,0.03973
7.164,0.05075
7.168,0.03725
7.172,0.04164
7.176,0.02781
7.18,0.01568
7.184,0.03594
7.188,0.04238
7.192,0.03566
7.196,0.04808
7.2,0.0321
7.204,0.02479
7.208,0.02243
7.212,0.043
7.216,0.01265
7.22,-0.00012
7.224,-0.04478
7.228,-0.05159
7.232,-0.00821
7.236,0.12595
7.24,0.34469
7.244,0.69463
7.248,1.06081
7.252,1.22128
7.256,1.07429
7.26,0.73075
7.264,0.29443
7.268,0.00819
7.272,-0.13949
7.276,-0.19725
7.28,-0.16139
7.284,-0.11168
7.288,-0.0565
7.292,0.02143
7.296,0.00952
7.3,0.03321
7.304,0.04875
7.308,0.03639
7.312,0.04812
7.316,0.05746
7.32,0.05057
7.324,0.05788
7.328,0.0458
7.332,0.04898
7.336,0.0776
7.34,0.0634
7.344,0.07346
7.348,0.05933
7.352,0.07124
7.356,0.09613
7.36,0.09335
7.364,0.08938
7.368,0.10759
7.372,0.13376
7.376,0.17158
7.38,0.17912
7.384,0.18497
7.388,0.21633
7.392,0.24012
7.396,0.24175
7.4,0.28285
7.404,0.29858
7.408,0.31785
7.412,0.32241
7.416,0.34717
7.42,0.34284
7.424,0.339
7.428,0.36636
7.432,0.331
7.436,0.30642
7.44,0.32127
7.444,0.30458
7.448,0.25504
7.452,0.23918
7.456,0.21954
7.46,0.19444
7.464,0.16112
7.468,0.14462
7.472,0.16484
7.476,0.1154
7.48,0.10196
7.484,0.10531
7.488,0.07993
7.492,0.06915
7.496,0.05776
7.5,0.07127
7.504,0.06309
7.508,0.07085
7.512,0.04986
7.516,0.06881
7.52,0.0537
7.524,0.04457
7.528,0.05577
7.532,0.05399
7.536,0.05281
7.54,0.04022
7.544,0.04791
7.548,0.04665
7.552,0.0577
7.556,0.06426
7.56,0.05877
7.564,0.0577
7.568,0.06194
7.572,0.06343
7.576,0.04393
7.58,0.03456
7.584,0.05041
7.588,0.06654
7.592,0.03332
7.596,0.03681
7.6,0.04898
7.604,0.04152
7.608,0.06002
7.612,0.04897
7.616,0.05806
7.62,0.05147
7.624,0.05266
7.628,0.03358
7.632,0.03987
7.636,0.02395
7.64,0.03818
7.644,0.04076
7.648,0.05134
7.652,0.03332
7.656,0.06834
7.66,0.06155
7.664,0.0346
7.668,0.02462
7.672,0.02736
7.676,0.05015
7.68,0.0315
7.684,0.04272
7.688,0.05283
7.692,0.05065
7.696,0.05465
7.7,0.03024
7.704,0.05346
7.708,0.05372
7.712,0.05668
7.716,0.05506
7.72,0.02971
7.724,0.01556
7.728,0.04909
7.732,0.06371
7.736,0.03515
7.74,0.03486
7.744,0.04617
7.748,0.05689
7.752,0.05256
7.756,0.02939
7.76,0.0382
7.764,0.03648
7.768,0.04994
7.772,0.05195
7.776,0.03212
7.78,0.03281
7.784,0.04579
7.788,0.03953
7.792,0.03273
7.796,0.03634
7.8,0.04881
7.804,0.03714
7.808,0.03972
7.812,0.03167
7.816,0.04789
7.82,0.03433
7.824,0.0435
7.828,0.04217
7.832,0.03527
7.836,0.02971
7.84,0.03863
7.844,0.03574
7.848,0.05152
7.852,0.02925
7.856,0.04875
7.86,0.05468
7.864,0.04901
7.868,0.05153
7.872,0.04179
7.876,0.05337
7.88,0.05764
7.884,0.03815
7.888,0.06005
7.892,0.05697
7.896,0.05737
7.9,0.08801
7.904,0.10185
7.908,0.09601
7.912,0.11605
7.916,0.12046
7.92,0.11605
7.924,0.10763
7.928,0.11779
7.932,0.12485
7.936,0.07143
7.94,0.09608
7.944,0.0644
7.948,0.07957
7.952,0.07319
7.956,0.04924
7.96,0.04289
7.964,0.04298
7.968,0.04086
7.972,0.03413
7.976,0.04811
7.98,0.01409
7.984,0.02578
7.988,0.03881
7.992,0.02694
7.996,0.02692
8.0,0.02588
8.004,0.04056
8.008,0.03713
8.012,0.01257
8.016,0.0145
8.02,0.02287
8.024,0.02586
8.028,0.03802
8.032,0.02505
8.036,0.04042
8.04,0.04144
8.044,-0.00446
8.048,-0.01531
8.052,-0.03306
8.056,-0.05629
8.06,-0.02185
8.064,0.08957
8.068,0.33312
8.072,0.69662
8.076,1.05409
8.08,1.18618
8.084,1.05522
8.088,0.71402
8.092,0.28877
8.096,-0.00366
8.1,-0.15347
8.104,-0.20347
8.108,-0.19115
8.112,-0.1386
8.116,-0.05997
8.12,-0.04417
8.124,-0.02073
8.128,0.02328
8.132,0.03109
8.136,0.00642
8.14,0.02918
8.144,0.02325
8.148,0.01787
8.152,0.02108
8.156,0.04285
8.16,0.03099
8.164,0.03109
8.168,0.03302
8.172,0.02331
8.176,0.0315
8.18,0.03981
8.184,0.03883
8.188,0.06537
8.192,0.08442
8.196,0.08312
8.2,0.09016
8.204,0.10824
8.208,0.15638
8.212,0.15116
8.216,0.16549
8.22,0.18464
8.224,0.21885
8.228,0.26007
8.232,0.27957
8.236,0.28808
8.24,0.28515
8.244,0.313
8.248,0.30545
8.252,0.31515
8.256,0.32938
8.26,0.29147
8.264,0.26472
8.268,0.28738
8.272,0.24316
8.276,0.22151
8.28,0.18138
8.284,0.18696
8.288,0.16786
8.292,0.13638
8.296,0.12594
8.3,0.08928
8.304,0.09343
8.308,0.07181
8.312,0.07103
8.316,0.0191
8.32,0.01529
8.324,0.03375
8.328,0.02181
8.332,0.0017
8.336,0.01027
8.34,0.01752
8.344,0.01791
8.348,0.00579
8.352,0.00246
8.356,0.00597
8.36,-0.00105
8.364,0.02178
8.368,-0.00686
8.372,-0.00204
8.376,-0.00499
8.38,0.01549
8.384,-0.00994
8.388,0.00666
8.392,-0.00503
8.396,-0.01019
8.4,-0.03019
8.404,-0.00626
8.408,0.01422
8.412,-0.01466
8.416,-0.04182
8.42,-0.00358
8.424,-0.02192
8.428,-0.02932
8.432,-0.01469
8.436,-0.02491
8.44,0.00332
8.444,-0.00717
8.448,-0.00269
8.452,-0.01812
8.456,-0.01219
8.46,-0.01809
8.464,-0.00866
8.468,-0.03916
8.472,-0.01323
8.476,-0.00084
8.48,0.00682
8.484,-0.00401
8.488,-0.01262
8.492,-0.03519
8.496,-0.01328
8.5,-0.03903
8.504,-0.02662
8.508,-0.01873
8.512,-0.01988
8.516,-0.00633
8.52,-0.0207
8.524,-0.03282
8.528,-0.02388
8.532,-0.02752
8.536,-0.00576
8.54,-0.03678
8.544,-0.02536
8.548,-0.00885
8.552,-0.03048
8.556,-0.01594
8.56,-0.02052
8.564,-0.02531
8.568,-0.04265
8.572,-0.02153
8.576,-0.02847
8.58,-0.01918
8.584,-0.04039
8.588,-0.01695
8.592,-0.01565
8.596,-0.00706
8.6,-0.03002
8.604,-0.0329
8.608,-0.01402
8.612,-0.03776
8.616,-0.03582
8.62,-0.02954
8.624,-0.03977
8.628,-0.00919
8.632,-0.01525
8.636,-0.05317
8.64,-0.05313
8.644,-0.03549
8.648,-0.022
8.652,-0.0201
8.656,-0.01167
8.66,-0.02546
8.664,-0.042
8.668,-0.02439
8.672,-0.04355
8.676,-0.03984
8.68,-0.04913
8.684,-0.04055
8.688,-0.03683
8.692,-0.03547
8.696,-0.00603
8.7,-0.02413
8.704,-0.01826
8.708,-0.01668
8.712,0.00548
8.716,-0.01875
8.72,0.00893
8.724,-0.00225
8.728,0.01485
8.732,0.03082
8.736,0.01628
8.74,0.03403
8.744,0.04294
8.748,0.05072
8.752,0.04116
8.756,0.07432
8.76,0.05743
8.764,0.00102
8.768,0.02033
8.772,0.01653
8.776,0.00507
8.78,0.00934
8.784,-0.04904
8.788,-0.03385
8.792,-0.00752
8.796,-0.01541
8.8,-0.00556
8.804,-0.01533
8.808,-0.05217
8.812,-0.02546
8.816,-0.04207
8.82,-0.03675
8.824,-0.03901
8.828,-0.04562
8.832,-0.04635
8.836,-0.03127
8.84,-0.04733
8.844,-0.03844
8.848,-0.03542
8.852,-0.04786
8.856,-0.04514
8.86,-0.02838
8.864,-0.06399
8.868,-0.05603
8.872,-0.07512
8.876,-0.07763
8.88,-0.07585
8.884,-0.14177
8.888,-0.09174
8.892,0.01036
8.896,0.18586
8.9,0.53333
8.904,0.91302
8.908,1.11091
8.912,1.04516
8.916,0.72536
8.92,0.30904
8.924,-0.02576
8.928,-0.201
8.932,-0.26968
8.936,-0.27862
8.94,-0.22117
8.944,-0.14958
8.948,-0.10714
8.952,-0.0705
8.956,-0.04668
8.96,-0.0789
8.964,-0.02929
8.968,-0.06899
8.972,-0.04549
8.976,-0.04332
8.98,-0.04623
8.984,-0.04121
8.988,-0.04876
8.992,-0.04874
8.996,-0.03846
9.0,-0.03143
9.004,-0.03693
9.008,-0.01868
9.012,-0.02516
9.016,-0.01235
9.02,0.00324
9.024,0.02496
9.028,0.03143
9.032,0.05745
9.036,0.09153
9.04,0.08744
9.044,0.13085
9.048,0.12196
9.052,0.16803
9.056,0.17948
9.06,0.22692
9.064,0.21282
9.068,0.223
9.072,0.25585
9.076,0.25403
9.08,0.2513
9.084,0.21803
9.088,0.24387
9.092,0.2258
9.096,0.21246
9.1,0.18349
9.104,0.18774
9.108,0.14975
9.112,0.12424
9.116,0.08588
9.12,0.08039
9.124,0.04911
9.128,0.05981
9.132,0.02948
9.136,0.00441
9.14,-0.00327
9.144,0.00559
9.148,-0.01901
9.152,-0.02803
9.156,-0.0113
9.16,-0.0336
9.164,-0.0306
9.168,-0.04825
9.172,-0.0505
9.176,-0.03718
9.18,-0.04886
9.184,-0.04466
9.188,-0.05021
9.192,-0.04974
9.196,-0.05154
9.2,-0.06584
9.204,-0.03448
9.208,-0.05735
9.212,-0.06452
9.216,-0.04919
9.22,-0.05801
9.224,-0.03497
9.228,-0.04237
9.232,-0.05706
9.236,-0.06059
9.24,-0.0422
9.244,-0.05822
9.248,-0.06625
9.252,-0.06969
9.256,-0.04122
9.26,-0.06836
9.264,-0.06373
9.268,-0.04123
9.272,-0.03979
9.276,-0.0634
9.28,-0.05662
9.284,-0.03752
9.288,-0.04661
9.292,-0.0546
9.296,-0.04755
9.3,-0.04386
9.304,-0.06198
9.308,-0.06087
9.312,-0.03521
9.316,-0.02742
9.32,-0.03749
9.324,-0.0505
9.328,-0.05628
9.332,-0.0473
9.336,-0.03526
9.34,-0.03264
9.344,-0.04774
9.348,-0.04268
9.352,-0.06468
9.356,-0.04886
9.36,-0.02956
9.364,-0.04864
9.368,-0.04134
9.372,-0.03591
9.376,-0.03672
9.38,-0.04521
9.384,-0.05297
9.388,-0.07203
9.392,-0.05984
9.396,-0.04948
9.4,-0.03703
9.404,-0.043
9.408,-0.03158
9.412,-0.05973
9.416,-0.06626
9.42,-0.03758
9.424,-0.02327
9.428,-0.04206
9.432,-0.05081
9.436,-0.03345
9.44,-0.02701
9.444,-0.05823
9.448,-0.0476
9.452,-0.03122
9.456,-0.04015
9.46,-0.05244
9.464,-0.04627
9.468,-0.05308
9.472,-0.05977
9.476,-0.03833
9.48,-0.05738
9.484,-0.04312
9.488,-0.05267
9.492,-0.03611
9.496,-0.04537
9.5,-0.044
9.504,-0.05915
9.508,-0.03772
9.512,-0.04556
9.516,-0.04966
9.52,-0.03491
9.524,-0.02887
9.528,-0.01936
9.532,-0.03694
9.536,-0.03623
9.54,-0.04996
9.544,-0.04655
9.548,-0.02433
9.552,-0.0433
9.556,-0.01603
9.56,-0.05213
9.564,-0.03889
9.568,-0.039
9.572,-0.04445
9.576,-0.03979
9.58,-0.03814
9.584,-0.03354
9.588,-0.03632
9.592,-0.0226
9.596,-0.00492
9.6,-0.02551
9.604,-0.02936
9.608,-0.04567
9.612,-0.04005
9.616,-0.05355
9.62,-0.02714
9.624,-0.05035
9.628,-0.02417
9.632,-0.04108
9.636,-0.02742
9.64,-0.02518
9.644,-0.05372
9.648,-0.04034
9.652,-0.02621
9.656,-0.02446
9.66,-0.02031
9.664,-0.0337
9.668,-0.0304
9.672,-0.00757
9.676,-0.02628
9.68,-0.0185
9.684,-0.03121
9.688,-0.04579
9.692,-0.02183
9.696,-0.02056
9.7,-0.01547
9.704,-0.03726
9.708,-0.03463
9.712,-0.05176
9.716,-0.01878
9.72,-0.01542
9.724,-0.03292
9.728,-0.02982
9.732,-0.02678
9.736,-0.00478
9.74,-0.01265
9.744,-0.00952
9.748,-0.02463
9.752,-0.02787
9.756,-0.00898
9.76,-0.04175
9.764,-0.01537
9.768,-0.03677
9.772,-0.01141
9.776,-0.0144
9.78,-0.03081
9.784,-0.01718
9.788,-0.03307
9.792,-0.0317
9.796,-0.02351
9.8,-0.02757
9.804,-0.00623
9.808,0.0073
9.812,-0.01734
9.816,-0.01709
9.82,-0.00775
9.824,-0.02018
9.828,-0.01059
9.832,-0.03823
9.836,-0.02365
9.84,-0.03348
9.844,-0.03756
9.848,-0.00286
9.852,-0.01754
9.856,0.00526
9.86,0.00486
9.864,-0.0136
9.868,-0.01748
9.872,-0.02118
9.876,-0.04104
9.88,-0.0178
9.884,-0.01431
9.888,-0.01874
9.892,-0.02195
9.896,-0.01098
9.9,-0.01401
9.904,-0.00757
9.908,-0.02068
9.912,0.01409
9.916,-0.00162
9.92,-0.00968
9.924,-0.01676
9.928,-0.01862
9.932,0.00282
9.936,-0.01118
9.94,-0.0053
9.944,-0.00056
9.948,-0.01166
9.952,-0.00171
9.956,-0.02669
9.96,-0.01558
9.964,-0.02681
9.968,-0.00819
9.972,-0.00801
9.976,0.01849
9.98,-0.0116
9.984,-0.00011
9.988,0.0035
9.992,0.01559
9.996,0.00468
